timestamp,emg1,emg2,emg3,emg4,emg5,emg6,emg7,emg8
12900435126,-3,-3,36,-9,-4,-4,-3,-3
12900435126,-3,0,-22,-3,-3,0,-1,-3
12900436676,1,3,8,-17,-4,-2,0,-1
12900436676,-1,0,-3,12,0,0,-2,-1
12900456976,0,-5,-24,5,2,0,1,-1
12900456976,1,19,-8,-16,-2,-1,0,0
12900457713,-1,1,-3,8,-1,-2,-3,-2
12900457713,-1,0,10,-2,0,-1,-1,-1
12900471859,-1,0,-9,-11,-3,-3,1,-1
12900471859,-2,-8,11,3,-4,-2,-1,-3
12900472668,0,-3,-35,-4,1,-2,1,0
12900472668,0,5,34,-3,-3,-3,-3,-3
12900494399,0,-3,-49,10,3,0,-1,-2
12900494399,-2,-4,35,-1,-1,-1,2,-1
12900495183,-2,1,-7,-5,-1,-2,-1,-1
12900495183,-2,-22,-14,-6,0,-1,-1,-1
12900516965,-2,-18,9,-6,-11,-1,-2,-3
12900516965,-7,-15,27,18,-2,-2,-2,0
12900517624,-4,-7,-17,-2,-1,3,0,-1
12900517624,2,14,12,-5,-3,-2,0,2
12900531983,2,-3,-37,0,2,2,-2,2
12900531983,7,9,33,6,2,-1,-2,0
12900532671,-3,12,24,5,1,-4,-2,-1
12900532671,-7,18,-6,10,-2,0,0,-2
12900554489,-6,-11,3,-12,-2,0,-1,-2
12900554489,5,9,-35,0,0,-1,-1,0
12900555153,6,6,7,-6,2,-2,-1,-3
12900555153,-2,-8,21,-4,0,-1,-1,-1
12900576951,-3,8,-17,11,5,1,2,1
12900576951,-3,-7,0,-8,-4,-1,-3,-2
12900577619,-2,-14,7,2,0,-2,-1,-1
12900577619,2,8,5,-2,-3,-1,-3,-3
12900592001,7,2,6,11,-2,-1,-2,0
12900592001,1,0,-9,-7,1,0,-2,1
12900592618,5,59,3,-1,2,1,1,3
12900592618,-3,4,-9,-2,2,-2,1,1
12900614457,0,3,34,13,2,0,2,0
12900614457,2,36,9,-5,-8,-4,-1,-2
12900615133,-1,-9,-15,-18,2,3,0,0
12900615133,-6,-21,-10,-9,-1,-4,-1,-3
12900636843,-4,5,-13,-11,-1,-2,-1,-1
12900636843,-2,-13,-5,20,1,-2,-1,0
12900637653,-2,-12,4,9,-5,-2,-3,-1
12900637653,2,2,12,-13,-4,-2,-1,-1
12900651907,-1,-6,-11,0,-2,-3,-2,-2
12900651907,1,1,-24,-7,-1,0,0,-1
12900652682,-1,-14,15,6,-1,-1,-1,0
12900652682,-2,-11,-15,5,-1,1,-3,-2
12900674484,-2,-1,7,2,-2,-4,-2,-3
12900674484,-5,-16,-5,-14,-1,-1,-1,-1
12900675130,-2,-4,0,4,-1,-1,0,-3
12900675130,0,0,-34,-10,2,1,1,1
12900696894,-1,9,68,18,-5,-4,-4,1
12900696894,0,-9,-38,-17,1,2,0,-1
12900697626,-3,-8,16,4,2,2,1,-1
12900697626,4,2,-9,4,2,0,1,0
12900711917,-4,-6,-3,-18,-4,-2,0,-2
12900711917,-9,-12,-5,-1,-7,-5,-3,-5
12900712638,7,32,8,1,-1,-4,-4,1
12900712638,4,9,13,4,-1,0,-2,1
12900734453,-2,-7,-43,-12,-1,0,-1,-1
12900734453,3,2,48,5,-2,1,-1,-1
12900735107,-5,-13,-24,2,-2,0,-2,-3
12900735107,-4,-2,-3,0,0,0,0,-2
12900756961,-1,5,11,-1,-1,1,0,-1
12900756961,-2,-1,-6,7,0,-1,-3,-3
12900757655,-3,-14,-26,-16,-3,-4,-1,-3
12900757655,-2,-6,33,5,-3,-3,-2,-4
12900771958,-2,-4,-9,-1,0,2,-2,-1
12900771958,-2,-12,-17,0,2,3,0,1
12900772624,-1,8,4,6,3,0,-1,0
12900772624,-4,-12,26,-5,-6,-4,-3,-2
12900794520,1,8,7,3,-3,-3,-1,-1
12900794520,0,-12,-19,-12,-4,-2,-2,-1
12900795217,1,-12,16,2,2,1,-2,0
12900795217,-6,1,-17,6,1,1,1,-1
12900825165,-7,-6,-7,-5,0,0,-1,-3
12900825165,-8,-23,15,10,-5,-7,-5,-6
12900825850,-2,-7,-23,-9,-4,-1,1,1
12900825850,-3,-2,13,-2,-1,0,-2,1
12900831913,3,-7,-19,-8,-2,-3,-1,1
12900831913,-5,9,-12,2,0,-2,-1,-3
12900832607,-1,-8,31,4,3,1,0,0
12900832607,0,5,-21,-1,-1,-1,-2,-1
12900854453,-3,-3,0,-6,-5,-2,0,-1
12900854453,1,-1,8,-4,-2,-1,-3,1
12900855137,0,-3,-8,4,-5,-2,-1,-2
12900855137,-1,-2,-5,-3,-2,-2,-1,-2
12900876943,2,6,6,-1,0,0,-2,0
12900876943,-4,11,4,-4,6,1,1,0
12900877678,-8,-15,2,-2,0,0,-2,-1
12900877678,-3,-2,5,9,-1,-4,-2,-2
12900891952,-2,-2,-3,-7,0,0,-1,-1
12900891952,4,-5,-20,-9,-2,-2,1,2
12900892619,1,-5,7,7,1,-1,-1,-2
12900892619,-2,4,2,-1,-3,0,0,0
12900914418,2,-13,-38,1,-3,-3,-1,-1
12900914418,3,5,4,-6,3,3,0,0
12900915138,5,8,-9,1,-7,-1,0,0
12900915138,-4,9,8,-2,-3,-4,-1,-3
12900937679,-3,-47,-27,-4,-5,-3,-3,-5
12900937679,1,-1,-10,-9,1,-1,0,1
12900938340,-2,-4,4,-1,-7,-3,-3,-2
12900938340,0,1,5,7,6,1,0,-1
12900951882,2,12,1,-1,-3,-2,0,0
12900951882,0,13,-4,-1,-1,-1,-1,-2
12900952597,-11,-14,-18,-2,1,0,0,-3
12900952597,2,-8,29,-2,-4,0,-1,-1
12900974522,-2,2,-16,-4,3,0,-3,-2
12900974522,8,10,56,9,-2,0,-1,0
12900975136,-4,8,-48,-11,3,1,0,1
12900975136,-3,4,25,-8,-2,-2,-3,-1
12900997554,0,1,10,9,1,0,0,0
12900997554,-4,-3,-3,-1,-1,-1,0,0
12900998321,5,-2,18,3,0,-1,2,1
12900998321,0,-7,-19,-5,-2,-2,-1,-2
12901011962,1,10,8,1,2,3,1,1
12901011962,-2,-2,7,-3,-5,-2,-2,-2
12901012893,1,5,-9,-6,0,-1,0,0
12901012893,-1,-9,9,3,-4,0,0,0
12901034434,-2,7,1,-12,-5,-2,-3,-4
12901034434,1,11,-7,5,2,-1,-1,-1
12901035091,0,-4,6,2,-5,-2,-1,-1
12901035091,2,-9,-20,-10,3,2,0,1
12901057525,-1,16,14,5,1,0,2,0
12901057525,-4,-10,-19,-2,-3,-1,-1,-3
12901058378,-5,-11,14,-5,-2,-3,-4,-2
12901058378,1,2,-8,5,0,-1,-3,1
12901071976,0,-6,10,-9,-6,-1,-3,0
12901071976,-5,-4,11,6,-2,-2,-2,-3
12901072673,3,-4,-8,0,1,0,0,2
12901072673,-4,1,-7,7,1,0,2,0
12901094410,0,36,6,-5,2,-1,-1,1
12901094410,-4,-3,5,4,-1,-1,-1,0
12901095144,0,-6,-22,2,-3,0,-1,0
12901095144,0,5,-1,-2,-3,1,0,-2
12901117644,-4,-6,11,-2,3,2,1,0
12901117644,-2,-9,15,7,0,0,-1,-1
12901118300,0,8,-17,-7,-3,-1,-1,-2
12901118300,0,8,-4,-2,0,-3,0,0
12901140187,9,22,24,14,2,1,0,0
12901140187,-3,-16,-13,-10,-3,-3,-2,-2
12901140836,-2,3,20,1,-3,-3,-3,-4
12901140836,2,-4,1,12,-4,-1,0,-3
12901154398,-1,-23,-16,-18,-5,-2,-4,-3
12901154398,-2,-8,-18,-5,-6,-1,0,-1
12901155166,0,1,5,-3,0,0,-2,-1
12901155166,-2,-7,-3,-1,1,-3,-2,0
12901177666,-4,-4,-19,7,0,-2,-2,-2
12901177666,-1,-5,15,0,1,-1,-1,-2
12901178334,0,-1,-20,-1,-1,1,1,-2
12901178334,-4,-18,34,-5,-1,-1,-3,-3
12901191934,-4,-29,-29,-2,-4,-5,-3,-1
12901191934,-5,4,-9,-6,-1,1,-2,-1
12901192622,0,-1,3,-3,1,-1,0,2
12901192622,2,15,0,-4,4,2,1,1
12901214517,-2,6,7,10,3,0,1,-1
12901214517,3,-2,-14,-1,-3,-1,-1,0
12901215135,-1,1,11,-1,-3,-3,-3,-3
12901215135,-2,-2,-16,-6,-4,-1,-1,-1
12901237623,-2,-3,7,6,0,0,1,1
12901237623,-3,-3,-20,-9,-2,-2,-2,-2
12901238347,-5,-5,14,3,1,-1,0,-2
12901238347,9,16,-8,-4,-1,1,0,2
12901251889,-6,-15,-3,0,-4,-3,-2,-2
12901251889,2,1,-2,3,0,-1,0,1
12901252613,1,5,3,-2,-3,-2,-1,1
12901252613,-2,-2,11,-8,0,-1,-3,-4
12901274520,-2,-19,-7,-1,0,0,0,-1
12901274520,4,8,15,3,1,0,-1,0
12901275146,-3,-4,-7,-5,-5,-3,-3,-1
12901275146,-1,-13,-20,8,-5,-2,-2,-1
12901297646,-3,4,0,-7,0,0,0,-2
12901297646,-3,-2,20,0,-1,-1,0,0
12901298342,-1,3,-7,0,2,-1,-2,0
12901298342,-3,-9,-15,-5,-1,-2,-1,0
12901311850,2,13,5,0,1,2,1,-1
12901311850,0,10,6,1,0,2,1,1
12901312644,-5,3,32,7,1,-3,-2,-4
12901312644,-1,7,7,1,2,-2,0,0
12901334462,-4,0,-11,-3,-5,-2,-2,-1
12901334462,2,3,-5,0,-1,-1,-2,0
12901335133,1,0,-18,0,-2,0,1,-1
12901335133,-3,-6,6,-6,-2,-1,-3,-3
12901357651,-1,-2,3,-3,0,-3,-1,-1
12901357651,-1,-2,-12,1,0,0,-1,0
12901358353,-1,2,0,-2,0,1,0,-1
12901358353,-3,-8,-17,-3,-3,-1,-3,-1
12901371922,1,0,-5,-1,-3,-1,-1,0
12901371922,-4,-9,15,-7,-1,-3,-3,-2
12901372622,-1,0,1,-5,-2,-3,0,-1
12901372622,9,30,-10,8,2,0,3,2
12901394476,-1,3,6,-4,-1,-1,-1,-1
12901394476,-3,-7,-23,4,-2,-1,-1,-1
12901395159,2,-1,-8,-5,0,1,1,0
12901395159,-3,-3,5,0,-2,-2,0,-1
12901416884,-2,0,-30,-1,-1,0,-2,-1
12901416884,2,7,39,8,3,-1,0,-1
12901418034,-4,21,-1,-2,1,2,0,0
12901418034,-3,-10,-10,-1,-2,-2,-3,-2
12901431840,1,-5,8,3,-3,-2,-1,-1
12901431840,-1,-6,-20,-5,1,-2,1,0
12901432589,-7,7,2,4,2,0,1,0
12901432589,-2,1,10,-2,-5,0,-2,-2
12901454492,1,3,-9,-6,1,0,-1,0
12901454492,1,-7,6,-1,-2,-2,0,-2
12901455197,-2,-16,-24,-7,-4,-2,-3,-2
12901455197,-2,-1,1,2,1,-1,0,-2
12901477560,-3,1,38,2,-2,0,-1,-2
12901477560,0,6,-20,-5,-2,-2,-1,0
12901478301,1,-7,-30,-10,-1,1,-1,-1
12901478301,-2,-10,12,2,-1,-1,-3,0
12901491954,3,10,-3,-6,-3,-2,0,1
12901491954,-2,3,-10,-3,-2,-1,-2,-3
12901492648,2,-5,32,5,-3,-2,-2,-1
12901492648,-2,-9,-25,-4,-2,-2,-1,-1
12901514455,-2,-7,8,1,0,1,-1,-3
12901514455,0,22,-9,-3,-1,1,-2,0
12901515132,1,9,6,-2,1,0,1,-1
12901515132,-1,-1,3,-1,-1,-1,-2,-2
12901536898,0,-1,-1,0,2,-2,-1,-1
12901536898,-2,-7,0,1,-4,-3,-1,1
12901537584,0,-14,-13,-10,-2,-1,-3,-1
12901537584,1,12,6,1,-2,1,0,0
12901551160,-4,-9,15,-9,-4,-2,-1,-2
12901551160,-3,-7,7,2,1,-1,-3,-2
12901559494,-3,-4,-1,7,0,-3,0,-1
12901559494,1,-5,-3,-4,0,0,-2,0
12901574457,-2,-1,-31,-2,-2,0,-2,2
12901574457,-1,-5,0,-8,-2,-3,-3,-1
12901575132,-3,-3,6,-3,-5,-3,-1,-2
12901575132,-2,3,7,6,1,0,0,0
12901596928,1,2,19,12,3,-1,-3,0
12901596928,-2,-1,-14,-4,-1,0,-1,-3
12901597624,1,-2,-8,-5,-3,-2,-1,0
12901597624,-2,-9,-3,-1,2,1,0,-1
12901611174,-1,2,-15,-1,2,-1,2,-2
12901611174,-3,-9,8,4,-2,0,0,-1
12901619420,2,-2,13,-1,-1,-2,-1,-1
12901619420,-2,-1,-28,-15,-5,-1,0,-2
12901634398,-4,-4,18,16,1,-2,-3,-1
12901634398,1,7,-2,-2,2,1,-1,0
12901635140,-3,-5,-11,5,-2,-2,1,-1
12901635140,-1,-3,-6,-2,-2,-1,0,1
12901656816,0,1,-3,-1,-4,-2,0,-1
12901656816,-5,-5,-2,-3,0,-1,0,-2
12901657563,-1,-4,3,-1,-3,0,-1,0
12901657563,-3,7,-12,-4,2,0,-2,-2
12901671256,1,-4,-11,-8,-4,0,0,-2
12901671256,2,9,3,13,2,-3,-2,-2
12901679464,-3,-10,-17,-3,1,0,-1,-1
12901679464,-3,5,48,5,-2,-1,-1,-2
12901694289,1,3,-22,-8,-3,-2,0,-1
12901694289,0,-5,0,-4,-3,-1,-1,-1
12901695089,1,-5,0,3,-6,-2,1,0
12901695089,-10,-33,-12,-4,-5,-4,-3,-5
12901716919,-1,-4,4,-17,0,1,0,1
12901716919,0,-2,-9,3,-4,-2,0,0
12901717550,1,6,3,3,1,0,1,-1
12901717550,-2,-7,7,-2,0,-2,-1,-2
12901731258,-1,3,-14,5,-1,-1,-2,-2
12901731258,-5,-6,-9,-7,-2,2,0,0
12901739501,-2,-6,-11,-2,-1,1,-1,-1
12901739501,-1,6,-10,-1,0,-1,-1,0
12901754446,0,-3,13,6,1,-1,-1,0
12901754446,3,4,2,0,0,0,1,-1
12901755071,0,0,10,-3,-1,0,-2,-2
12901755071,-3,6,-4,1,3,0,1,0
12901776969,0,-2,-2,0,-1,1,1,0
12901776969,-1,-1,-2,-5,-1,-2,-1,-1
12901777621,-2,0,8,2,-1,-2,-3,-2
12901777621,0,-1,2,-7,-3,-2,-1,-1
12901791255,-3,-4,-4,2,-3,-1,-3,-2
12901791255,-5,-22,3,-2,-2,-3,-3,-2
12901799473,2,0,-9,0,-3,0,0,1
12901799473,0,-2,8,-5,-6,-1,-1,-1
12901814459,1,6,1,-6,3,-1,-1,-1
12901814459,-1,3,-2,-3,-3,0,0,0
12901815103,-1,2,-4,6,-1,-1,-1,-2
12901815103,2,10,2,-4,0,-1,0,0
12901836996,-4,-11,-11,-8,-5,-1,-1,-3
12901836996,2,8,6,3,-1,-2,0,-1
12901837628,-2,4,0,-6,1,0,-1,-1
12901837628,1,-1,-12,5,0,1,-1,1
12901860023,-1,2,3,1,-1,-2,-1,-1
12901860023,-2,-3,-3,-2,2,-1,-1,-3
12901860752,1,-2,13,0,-2,-3,-2,-2
12901860752,-3,2,-3,4,1,0,-2,-1
12901874402,-2,0,-2,-3,-4,-1,-1,1
12901874402,-1,-4,-12,2,2,0,-1,1
12901875089,2,24,19,0,0,1,0,1
12901875089,-1,-7,-4,-1,-1,-3,-2,-3
12901896826,-1,-2,6,5,-1,-2,-1,-2
12901896826,0,2,-9,-10,-3,-1,0,-1
12901897628,-3,-30,-14,-2,0,-1,-3,-1
12901897628,4,11,17,4,-3,-1,-1,0
12901920155,0,0,-9,0,0,1,-1,-2
12901920155,0,-1,9,5,-2,0,-2,-2
12901920790,-2,-12,-26,-14,-1,-1,-1,-2
12901920790,-1,-5,19,2,0,-3,-2,0
12901934440,-1,-3,-15,0,-4,-3,-1,-1
12901934440,-3,-6,1,0,0,0,0,1
12901935091,1,11,9,1,0,0,1,-2
12901935091,0,-7,-17,1,-1,1,-1,0
12901956915,-1,7,4,-4,-1,0,0,-1
12901956915,-1,-6,2,-2,-4,-2,-3,-2
12901957658,-2,3,7,-1,-1,-1,-3,-2
12901957658,-2,-19,-26,-3,3,2,-1,-1
12901980128,-3,-9,12,-1,0,-2,-2,-1
12901980128,-1,14,-1,1,-2,-1,0,1
12901980761,-3,-13,0,6,2,-1,0,-2
12901980761,6,26,-17,-10,0,1,2,0
12901994482,0,-3,-2,3,-3,0,-1,0
12901994482,-1,-5,25,-4,2,-1,-2,-2
12901995144,0,8,-11,-1,-6,-2,-1,0
12901995144,-1,-5,-10,3,0,0,-1,-2
12902016882,1,3,4,1,3,0,0,0
12902016882,4,27,18,6,1,1,0,2
12902018517,-4,-5,1,-8,-3,1,-2,-2
12902018517,-2,-5,6,6,0,-2,-1,-2
12902040009,2,3,-25,-1,3,-1,1,0
12902040009,-8,-29,41,8,-6,-5,-4,-7
12902040806,0,3,-8,-7,-1,-1,0,-2
12902040806,1,-3,8,-2,-6,-1,-3,1
12902054428,-2,4,4,1,0,-1,-2,-3
12902054428,-1,-5,-15,-5,0,0,-1,-1
12902055113,1,1,2,-4,-2,-2,0,-1
12902055113,-3,0,0,-5,-3,-2,-1,-2
12902076792,-1,-10,1,1,-4,-3,-2,-1
12902076792,0,1,-12,-5,-4,0,0,-3
12902077597,-4,-2,14,2,0,-2,-2,-1
12902077597,1,1,-30,-2,3,-2,0,-1
12902100031,-4,-4,30,4,-5,-2,-4,-2
12902100031,-3,-2,-14,-11,0,0,-1,-2
12902100784,1,2,3,3,0,0,0,1
12902100784,-8,-23,-2,-1,1,0,-1,-3
12902114426,3,-2,-24,-6,-1,0,1,1
12902114426,4,9,-17,8,0,0,0,3
12902115122,-5,1,31,-10,-1,-1,-1,-2
12902115122,-1,-5,-1,2,-2,-1,-1,-1
12902136929,-5,-4,-8,-9,-1,0,-1,-1
12902136929,2,3,-16,3,2,0,2,2
12902137581,1,1,6,8,-4,-1,-2,-1
12902137581,-1,9,15,4,0,-1,-1,-1
12902160024,2,1,11,2,-1,0,0,2
12902160024,0,-5,-39,-13,-1,-1,0,-2
12902160774,-1,-2,15,9,-1,-1,-1,-1
12902160774,-4,13,11,-3,-3,-4,-1,-3
12902174399,-2,-5,-3,-1,-5,-2,-3,-4
12902174399,-3,-10,-6,-4,0,1,0,0
12902175130,-1,-2,-14,-8,-3,0,0,0
12902175130,1,0,0,3,0,-1,0,1
12902196831,-2,3,21,2,-1,-1,0,-2
12902196831,-3,0,-9,-6,0,-1,-1,-1
12902197603,1,-13,-20,13,1,-3,-1,-1
12902197603,-1,4,46,7,-4,-2,-3,-1
12902219990,-7,-20,-28,-13,-1,0,-2,-3
12902219990,-2,-7,5,2,-3,0,-2,-2
12902220800,-3,-12,-28,-7,-4,-1,-1,-1
12902220800,-1,3,-17,-1,3,3,-1,1
12902234411,-2,-22,6,4,-2,-2,-2,-3
12902234411,-1,2,9,-1,-4,-3,-1,-2
12902235071,1,6,-6,-3,1,-2,-2,-2
12902235071,0,-3,-32,-11,-3,0,0,0
12902256942,-1,9,48,10,0,-3,-1,-2
12902256942,3,-4,-8,-1,-3,-3,-3,-3
12902257580,-3,4,3,8,2,-1,0,-1
12902257580,-4,-33,-14,-16,-2,-1,-1,-3
12902280187,3,0,-10,-4,1,0,1,1
12902280187,-5,1,-7,-2,-3,-2,-1,-2
12902280873,0,6,7,-2,-4,0,-3,-2
12902280873,-1,-3,10,6,-2,-3,-1,-1
12902293755,1,3,-29,-6,-3,-3,-1,-2
12902293755,-4,-6,28,1,-2,-3,-1,-2
12902301904,1,6,-6,-8,2,1,0,0
12902301904,0,5,-22,-4,-4,-1,0,-1
12902316981,6,39,7,4,4,1,-1,2
12902316981,-2,-2,-12,4,1,0,0,-1
12902317647,-1,-5,0,-3,-1,-3,-1,-1
12902317647,4,6,15,5,0,-2,-1,1
12902340128,-4,5,-9,-8,-2,-2,-2,0
12902340128,-4,-10,-5,-8,-1,-1,-3,-2
12902340782,1,1,1,0,-1,0,0,0
12902340782,-1,8,35,5,-3,-4,-3,-2
12902354446,-3,-26,-27,-9,0,-1,-1,0
12902354446,-1,7,-5,5,1,-1,-1,1
12902355101,-3,-6,-5,-6,0,1,-1,-3
12902355101,2,2,-29,-5,1,2,0,0
12902376805,-5,-2,54,7,-4,-3,-2,-4
12902376805,3,1,-10,-3,0,-2,-2,2
12902377586,-4,-2,-9,-3,0,-3,-2,0
12902377586,3,29,1,4,1,1,1,1
12902400172,2,1,-7,2,-1,0,1,0
12902400172,0,-10,-6,0,1,0,0,-3
12902400818,6,25,15,-6,0,-1,1,0
12902400818,-4,-11,4,2,1,-2,-1,-1
12902414370,-5,-20,0,-2,-1,-2,-3,-3
12902414370,-3,0,-18,-1,-1,-1,0,0
12902415065,-7,-27,26,6,-4,-2,-2,-3
12902415065,0,-8,-27,-7,-2,-2,-1,-2
12902436797,0,9,10,4,4,0,2,1
12902436797,-1,2,5,-6,-3,-1,-2,1
12902437666,1,-1,-3,9,3,0,-3,0
12902437666,-4,-7,-15,-8,-2,0,-1,-1
12902460139,-3,-16,-4,3,2,0,0,-2
12902460139,3,4,-1,-9,-3,-1,-1,-1
12902460765,-2,-5,20,5,-3,-4,0,-1
12902460765,0,2,35,4,-2,-2,0,-1
12902476328,-3,-10,-29,-5,-1,0,-3,-1
12902476328,1,3,-2,-3,-3,-2,-2,-3
12902481798,-2,-10,-10,-3,0,0,0,-3
12902481798,-1,1,-3,-4,-2,0,-1,-1
12902496884,-1,-2,-5,-1,0,1,-1,1
12902496884,1,-1,23,6,-2,-3,-1,0
12902497561,-4,-4,-10,-1,-3,-3,-1,-2
12902497561,0,12,-3,-3,0,1,-1,0
12902520021,1,11,-2,11,-3,1,-1,-1
12902520021,1,2,-4,-7,-1,0,-1,0
12902520836,0,4,-1,-4,-4,-1,-2,-2
12902520836,-6,-11,19,-3,-2,-2,0,0
12902533602,3,17,-2,6,0,-1,1,-1
12902533602,-1,0,-35,1,1,1,0,-2
12902541798,2,0,16,-2,-2,-1,0,0
12902541798,-1,1,-13,-5,-4,-1,0,0
12902556725,2,0,-5,-11,-3,-2,-2,0
12902556725,-2,-24,14,11,0,0,-2,0
12902557511,0,12,-15,-1,-1,0,0,0
12902557511,0,-18,-5,-1,-5,-1,-5,-4
12902580068,-2,-3,0,-5,-4,-2,-1,0
12902580068,-2,-4,-15,-10,-2,-2,-2,-1
12902580734,-3,-1,20,2,-2,0,0,1
12902580734,1,0,-15,1,-1,-1,0,-1
12902602587,0,3,10,0,1,-1,-2,-1
12902602587,4,30,14,0,0,1,-1,-3
12902603256,4,9,-18,4,-2,0,-1,0
12902603256,-2,-12,-8,0,0,0,-2,-2
12902616837,1,7,1,-1,-1,-2,1,-2
12902616837,-5,-1,6,2,-3,-3,-1,-1
12902617611,1,-2,-27,-6,0,-1,-1,-1
12902617611,-3,-7,19,-6,-3,-2,0,-2
12902640111,-7,-11,26,0,-4,-2,-3,-5
12902640111,0,-4,3,11,-3,-2,0,1
12902640765,1,-1,-9,-1,0,0,-1,-1
12902640765,0,0,-20,-3,0,-1,-1,1
12902653795,-2,-7,4,-3,0,-1,-1,-1
12902653795,-2,2,1,-4,-1,1,-1,-1
12902661974,1,-4,-1,0,2,1,-1,-1
12902661974,4,8,2,1,1,0,0,0
12902676994,-2,15,5,2,1,-2,-2,-2
12902676994,-1,-3,5,-7,-3,-2,0,-1
12902677613,-2,-1,-5,7,3,-1,-1,0
12902677613,4,20,-1,0,2,-1,0,0
12902700060,0,5,15,-7,-2,-3,-2,-1
12902700060,-2,2,3,3,2,1,-3,1
12902700720,-4,-4,-6,-5,-5,-2,-3,-3
12902700720,-3,-4,-2,1,1,-1,0,-1
12902713756,1,-11,-24,-4,-2,1,0,1
12902713756,3,16,6,1,0,-1,0,1
12902721874,-2,-10,16,-5,-3,-1,-3,-2
12902721874,-4,-6,-3,8,-1,-1,-2,-2
12902736934,2,1,-13,-6,-3,-1,1,-1
12902736934,-2,-6,-5,5,3,0,-1,-2
12902737593,-7,-3,10,0,-1,1,1,-1
12902737593,-1,1,0,-4,-1,-4,-3,-2
12902760060,-1,0,-6,5,0,-1,0,0
12902760060,0,4,-23,-9,0,-1,0,0
12902760767,-5,4,53,7,-2,-3,-3,-4
12902760767,-1,-12,-2,-4,-2,0,-1,-2
12902782655,-2,1,-10,-3,-1,-1,-1,-1
12902782655,4,12,7,6,1,0,2,1
12902783191,-2,-15,-26,-14,0,1,-1,-1
12902783191,-3,-9,4,2,-2,-1,-2,1
12902796928,-2,-3,11,2,-2,-2,-2,-2
12902796928,-4,-12,-24,-3,-2,-2,-1,-2
12902797585,1,2,-9,-1,0,0,-1,0
12902797585,-2,7,8,2,-1,-2,-2,0
12902820171,2,-2,-9,-4,3,-2,-1,-1
12902820171,-11,-16,1,1,-1,1,0,-4
12902820800,0,2,-5,-1,-4,-2,0,0
12902820800,1,1,8,-5,-5,-2,-1,0
12902842622,-2,-3,-4,-2,0,1,-3,1
12902842622,-5,-25,12,0,-1,-4,0,-4
12902843193,-1,8,-25,3,0,-2,-1,0
12902843193,-1,0,-13,-2,-1,1,-1,-1
12902856951,0,4,0,5,-3,2,1,-1
12902856951,2,-6,-24,-12,1,0,-1,-1
12902857593,0,1,29,2,1,-1,-1,0
12902857593,-4,-3,0,2,-1,1,-2,-1
12902880111,-2,2,5,-1,-3,-2,0,0
12902880111,-2,-4,-22,-8,-4,1,-2,0
12902880715,4,1,11,11,2,-1,-1,0
12902880715,-2,0,4,1,-1,0,2,-2
12902902514,2,-4,-3,-3,-1,-3,-2,-2
12902902514,0,0,8,3,0,-1,-2,-1
12902903319,-6,2,-13,-12,-6,-2,-2,-3
12902903319,0,-7,-1,1,0,1,-1,-1
12902916728,0,-6,-15,-1,-3,2,0,0
12902916728,-5,-16,21,-2,-6,-3,-3,-3
12902917533,1,-3,-8,-1,-1,-1,-1,-1
12902917533,0,-5,-32,-1,5,-1,0,0
12902939998,1,0,4,-7,-2,0,-1,1
12902939998,-1,3,38,5,-1,-2,-4,-2
12902940764,-2,-3,-9,-5,-3,-1,0,-2
12902940764,-1,7,-9,-2,-4,-2,0,0
12902962568,1,-1,-15,-8,0,-1,-1,-3
12902962568,1,3,16,9,-4,-1,-1,0
12902963294,1,-9,-1,-13,-1,-1,0,-1
12902963294,-6,8,-3,1,-3,0,-3,-1
12902976784,-2,1,-3,-2,-4,-4,0,-2
12902976784,-6,-40,-22,-8,-4,-4,-3,-2
12902977546,1,4,-10,8,4,0,1,2
12902977546,2,-2,11,-4,-4,-2,-3,-1
12903000114,-2,0,7,1,-1,-1,-2,0
12903000114,-3,-12,16,6,-1,-1,-2,-1
12903000866,-1,5,-2,-3,-1,0,-1,0
12903000866,0,-1,-13,-3,0,0,0,0
12903022506,-2,-4,6,6,-2,-1,-1,0
12903022506,3,12,16,-2,-1,-1,-1,0
12903023268,0,0,-9,-2,-3,-1,-3,-2
12903023268,2,0,4,4,-2,-1,-2,-1
12903036719,-2,-4,1,-3,-5,-4,-1,-1
12903036719,3,13,-11,-8,0,-1,1,-1
12903037647,-1,-3,-14,8,2,1,0,-1
12903037647,-1,-4,30,-5,-3,-3,-1,-1
12903063642,-2,-4,-7,-3,-3,-3,-3,-3
12903063642,2,14,8,7,-1,-3,-2,0
12903063665,-3,-7,-22,-7,-3,-3,-1,0
12903063665,0,-5,-6,2,1,-1,1,1
12903082417,1,1,-11,-6,-2,2,-1,-1
12903082417,1,15,0,0,1,0,0,0
12903083189,0,-8,2,-2,-2,-2,-2,-3
12903083189,-5,-9,-5,0,-5,-1,-3,-2
12903096904,-6,-9,1,2,-2,-1,-1,-3
12903096904,-2,-2,-5,-2,2,1,3,1
12903097537,-1,-5,-14,-5,-3,-2,0,0
12903097537,-4,2,24,-2,-3,-4,-3,-3
12903119968,1,1,-7,10,4,-1,0,0
12903119968,-5,-31,-13,-6,-3,0,-2,-3
12903120757,5,-4,-3,-3,-4,-2,-1,-1
12903120757,-3,-4,-2,1,2,1,0,0
12903142439,1,6,-20,-12,-2,0,-1,-1
12903142439,-2,6,25,10,-3,-2,-2,-2
12903143238,-1,-1,5,1,2,0,-3,0
12903143238,1,0,-2,-2,0,-1,0,-1
12903156082,-2,-3,-10,-3,-1,-3,0,-1
12903156082,1,8,-15,-3,2,1,0,1
12903165240,1,20,17,0,-2,-2,0,-2
12903165240,-2,1,0,-2,0,-1,-1,-1
12903179954,0,-2,8,1,3,1,-2,1
12903179954,1,7,-8,-4,-1,-1,-1,0
12903181661,-3,-2,12,2,-5,-2,-1,-3
12903181661,0,-4,-8,-1,2,2,1,1
12903202513,1,1,-9,-3,-3,-1,0,0
12903202513,-2,1,-6,-6,-3,-2,-1,-2
12903204060,-5,-14,13,4,-4,-3,-3,-3
12903204060,-2,15,3,-2,-4,-1,0,-1
12903216190,-3,0,-4,-1,-2,0,-1,-1
12903216190,0,0,-9,1,3,1,-1,1
12903225069,-2,-4,-1,-3,-2,-2,-2,-1
12903225069,0,-6,-9,0,-1,-2,-2,-2
12903240030,-1,3,14,2,0,-3,-3,-2
12903240030,0,8,-8,-6,0,-1,0,-1
12903241518,0,3,-2,2,-2,-1,0,-1
12903241518,0,-5,0,3,3,1,-2,-1
12903269975,1,4,1,0,-1,-1,-1,-2
12903269975,4,0,3,-3,-2,-3,-1,-1
12903271583,-4,-9,-23,-4,-2,0,-2,0
12903271583,1,25,18,3,-2,-2,-1,-1
12903276194,-2,-11,10,-4,-4,0,0,-2
12903276194,-1,-2,1,2,-1,0,-2,-1
12903291219,2,2,-8,-1,0,1,1,1
12903291219,2,-9,2,0,3,-3,-1,-1
12903300115,-1,3,-18,-4,0,0,-1,0
12903300115,0,3,8,10,0,-1,0,0
12903301629,-3,2,11,-6,0,0,-1,-1
12903301629,-1,-11,-13,-2,-6,-2,-2,-2
12903322541,0,-7,-2,1,1,-1,-1,-2
12903322541,-2,3,-4,-8,-4,-2,-2,0
12903324072,1,-2,-12,3,2,-2,-1,-1
12903324072,-3,-9,-3,5,-4,-2,-2,-1
12903336210,-3,2,30,-1,-1,0,-1,-3
12903336210,2,2,-13,-1,3,0,0,-1
12903345120,-8,-13,2,-1,-3,-2,-2,-1
12903345120,4,12,-13,-4,-1,0,-1,0
12903360026,-3,-3,16,-3,-6,-5,-4,-2
12903360026,-3,-1,0,2,-4,-2,-2,-3
12903361715,0,-2,3,1,3,2,2,-1
12903361715,-1,-7,-8,-2,-1,1,1,0
12903382549,0,0,-2,-1,-2,2,0,-1
12903382549,-2,-4,2,0,-5,-4,-2,-2
12903384053,0,3,-15,-6,-1,-4,-3,-1
12903384053,-2,-8,-8,2,-11,-4,-4,-2
12903396090,-2,3,-12,8,7,-5,0,-1
12903396090,-3,-1,21,-28,0,-2,-2,0
12903405088,0,-2,-11,0,-9,4,-3,-1
12903405088,-1,3,-4,0,13,-6,-1,-2
12903419393,2,-3,8,4,-6,4,5,0
12903419393,0,-1,-12,5,-9,14,0,0
12903426290,-1,-1,6,2,23,-13,1,1
12903426290,-4,-5,-9,-11,-15,8,-16,-6
12903442667,-1,1,-12,13,-6,0,3,-1
12903442667,0,-1,7,8,27,-6,1,1
12903444225,3,3,13,-8,-8,-7,-2,-1
12903444225,-2,-6,-6,-16,-15,-16,-6,-1
12903456225,-4,0,-9,-22,-47,-32,-14,-4
12903456225,-2,-1,-11,-3,20,-15,2,-1
12903465150,-1,0,8,14,11,25,3,0
12903465150,1,0,20,9,-11,44,8,1
12903479463,8,3,-11,20,33,29,19,10
12903479463,-1,0,8,23,25,-19,-7,0
12903486237,-3,1,14,6,-6,-1,2,-2
12903486237,-2,-1,-4,-8,12,-6,-6,-3
12903502540,-3,-5,1,-23,-6,-5,-3,-1
12903502540,-1,0,-3,10,-58,-6,-2,-2
12903504114,-4,0,-10,-35,25,-38,-4,-4
12903504114,-3,-5,-18,-3,29,9,-4,-1
12903516148,-3,2,25,13,-30,2,-4,-5
12903516148,3,3,8,4,19,-3,11,4
12903525083,2,-4,-42,-8,-30,48,5,3
12903525083,2,1,11,18,38,-7,7,2
12903539406,-5,-1,-25,-24,0,-16,-20,-8
12903539406,-5,-3,20,23,46,-23,-6,-6
12903546256,-4,0,-8,-34,-121,5,-5,-5
12903546256,3,-2,-12,-18,5,5,19,6
12903562438,6,-5,4,75,111,53,10,7
12903562438,-5,9,37,-8,-9,-19,-4,-4
12903564113,-2,-3,-16,-20,-26,12,-4,-3
12903564113,-6,-10,-27,0,50,-39,-11,-6
12903576251,-4,-2,-9,0,-58,1,-14,-5
12903576251,-2,-4,-32,-87,-15,-36,-3,-5
12903585116,0,-3,30,68,43,8,-2,-1
12903585116,1,6,11,0,47,33,10,3
12903599324,4,2,14,47,-11,-23,10,2
12903599324,-3,-9,-15,32,70,92,-11,-3
12903606274,-2,7,16,-89,-73,35,5,-2
12903606274,4,-9,-21,33,84,-76,0,4
12903622538,-8,-7,30,16,-82,44,-6,-5
12903622538,9,2,-27,-20,40,-17,14,9
12903624151,-8,-7,35,-15,7,-42,-13,-5
12903624151,0,10,5,-24,-72,51,2,0
12903636203,0,-22,-20,2,81,4,11,4
12903636203,-3,-3,-33,2,-87,-37,4,0
12903645114,0,5,1,0,67,12,-12,-3
12903645114,-10,-10,16,36,-107,29,-12,-7
12903659404,10,13,3,-50,79,5,21,9
12903659404,8,7,12,84,14,121,15,6
12903666146,7,10,-9,-32,-25,-47,5,4
12903666146,-6,-2,-2,-41,-128,-88,-26,-9
12903682472,-9,9,20,-73,-64,-79,-20,-12
12903682472,-2,-2,-15,-14,33,7,-5,-3
12903684182,-4,-17,11,56,46,-1,6,0
12903684182,3,0,11,1,56,33,9,3
12903706379,2,5,-30,-18,-14,-8,-9,-3
12903706379,-4,-6,-5,-19,-24,-38,-8,-4
12903708032,4,5,14,59,10,7,1,-1
12903708032,5,3,9,-15,6,2,2,-1
12903719407,-1,8,1,4,4,28,9,0
12903719407,2,4,-8,-17,-12,-32,-20,-3
12903726194,-7,-11,-25,3,-19,-8,4,-1
12903726194,1,2,44,5,2,10,15,0
12903742545,6,2,-21,-4,26,-23,-15,1
12903742545,2,11,10,-2,-34,19,17,4
12903744209,-5,5,-8,-7,15,-10,-7,-6
12903744209,-2,-10,-19,1,5,-17,-1,-2
12903765059,-4,-6,3,-8,9,27,-5,-8
12903765059,-1,-9,0,-6,-29,-9,-6,-3
12903766575,-7,29,-9,7,23,-2,-2,-2
12903766575,2,-2,-6,-30,-12,-14,-2,-1
12903779298,-11,-20,-12,6,-31,-19,-11,-10
12903779298,-2,18,23,-3,10,6,-2,-2
12903786051,6,-9,-8,8,6,-17,0,2
12903786051,-1,10,35,4,-8,0,-3,-2
12903802421,2,4,-17,8,16,18,6,3
12903802421,10,5,7,-10,2,-4,-1,-2
12903804105,-12,-6,46,3,-18,-13,-8,-5
12903804105,-3,-8,-59,-42,-2,0,-6,-3
12903825041,-5,-11,38,12,17,3,3,2
12903825041,3,-5,-40,15,-12,-7,-3,-1
12903826590,9,-5,-3,2,-2,2,0,3
12903826590,-3,10,7,17,9,-14,-6,-4
12903838575,2,-6,-11,-9,-2,10,2,0
12903838575,-8,-6,25,2,-11,-3,-3,-2
12903847589,-1,-8,-14,-3,14,0,-1,-1
12903847589,-8,-12,-3,17,-3,5,1,-5
12903862535,0,4,9,-21,-17,-14,-3,1
12903862535,-10,-19,4,21,-5,-1,-3,-5
12903864186,1,-5,-24,3,15,6,2,-1
12903864186,7,-1,17,-4,12,11,7,5
12903884964,2,7,-9,-23,-14,-11,-2,-2
12903884964,-5,0,-53,-2,-11,-15,-5,-2
12903886654,-6,-6,-3,15,10,1,-2,-5
12903886654,0,6,15,16,20,13,7,5
12903898725,7,2,-29,0,-8,6,-1,2
12903898725,-13,-16,9,-76,-15,-5,-2,-2
12903907578,9,10,27,63,10,-7,-2,2
12903907578,-10,3,-1,-31,-28,-14,-13,-8
12903922534,-2,-9,13,26,17,8,8,1
12903922534,8,5,6,8,3,-1,-1,4
12903923979,3,-7,-34,-26,-9,-3,-4,0
12903923979,1,-3,13,-8,-5,6,0,0
12903945039,0,-1,3,35,-1,-6,-1,0
12903945039,-2,18,16,4,4,-1,-3,-3
12903946582,2,-4,-5,-20,11,13,10,6
12903946582,-9,-13,-45,7,-6,-6,-5,-6
12903958642,-2,5,23,5,-12,-14,-2,-1
12903958642,-1,-17,-24,-1,15,16,2,0
12903967580,-1,-2,-2,-42,-19,-4,-2,-2
12903967580,1,3,14,27,9,1,-1,1
12903982567,-4,-5,-16,-13,0,-7,-4,-2
12903982567,-2,-2,20,2,-4,-2,2,1
12903984146,-5,-3,-13,-8,-7,-7,-3,-2
12903984146,2,-4,-18,5,-2,-1,-4,1
12904005121,-8,-5,-14,-17,-1,2,0,-2
12904005121,6,5,7,38,10,5,3,2
12904006637,-7,-6,-18,-31,-9,1,-3,-4
12904006637,7,5,20,6,-10,-1,0,2
12904018587,-6,-7,-43,1,13,-1,1,-1
12904018587,-3,4,38,18,-16,-3,0,-4
12904027563,0,1,-26,-17,14,-5,-3,-2
12904027563,-10,-10,-4,5,-6,-2,-2,-2
12904042395,6,6,15,19,3,-2,-2,1
12904042395,1,-12,-25,-24,-7,-1,-1,1
12904044010,1,6,8,10,-10,-4,-4,-2
12904044010,-2,-9,-9,-8,2,0,-3,-2
12904065056,-4,3,21,-7,3,-1,1,-3
12904065056,-2,-4,-10,-2,-8,-5,-4,-3
12904066537,2,-4,-9,0,-5,-3,-3,0
12904066537,-4,-2,19,-3,0,-3,-3,-3
12904079024,2,4,-8,5,-8,-4,-1,0
12904079024,-7,-6,-1,-20,-2,3,2,-4
12904087552,-3,-2,9,14,7,1,4,1
12904087552,1,6,-3,-10,-13,-1,-5,-2
12904102567,2,1,-17,-2,1,-10,-3,1
12904102567,-3,-11,13,-2,4,11,4,-1
12904104193,-2,7,23,5,1,0,-2,-1
12904104193,2,5,-16,-9,-1,-2,1,-1
12904125032,-5,-9,7,-32,-13,-9,-7,-4
12904125032,1,-2,-18,25,-1,-7,-2,0
12904126631,2,1,12,10,11,11,5,1
12904126631,3,0,-16,-6,-4,-1,0,1
12904139426,-3,2,48,33,3,2,0,1
12904139426,-2,3,-18,-36,-11,-7,-5,-2
12904146117,-5,-4,-9,-10,11,2,1,0
12904146117,0,-3,-25,13,5,2,1,0
12904162550,2,1,-34,-15,-8,-2,-4,-2
12904162550,-2,7,43,-5,1,-2,0,-1
12904164047,2,-18,-4,4,-10,-6,-4,0
12904164047,-2,-2,-10,-1,8,3,3,-2
12904185043,-1,-3,-4,-2,-2,-1,0,2
12904185043,-3,-2,-16,-22,-19,-8,-5,-4
12904186513,3,19,26,7,20,1,2,0
12904186513,7,4,11,16,-1,11,2,1
12904199857,-5,-2,18,1,-6,-3,-3,-2
12904199857,4,0,-14,0,3,-4,-1,2
12904206126,-4,-9,11,3,-20,-7,-4,-4
12904206126,2,0,1,44,23,4,5,3
12904237547,-1,1,9,-35,-1,-2,-2,-2
12904237547,0,1,-11,11,-3,-5,-5,-1
12904239016,3,-4,-42,-24,-9,0,0,-1
12904239016,-8,0,23,-16,-1,-3,-2,-4
12904245074,-6,-7,-11,-3,-9,-6,-2,-4
12904245074,1,0,8,-2,8,-2,-1,0
12904246603,-4,-14,6,1,-6,-1,-2,0
12904246603,-2,1,-8,-8,1,0,-1,-2
12904258745,6,7,-1,9,4,2,1,0
12904258745,-7,-4,4,0,-6,-8,-7,-5
12904267536,-2,-1,-13,-4,10,9,5,-1
12904267536,-2,-5,-4,-11,-6,-4,-1,-1
12904282538,0,0,-8,-1,0,0,-3,-3
12904282538,0,-4,5,8,7,3,1,1
12904284118,-1,-2,-10,-2,-9,-4,-3,-2
12904284118,-2,0,7,2,4,-2,0,1
12904308902,-2,-1,-2,-3,7,-1,1,-2
12904308902,0,-3,2,31,14,4,1,0
12904308950,2,6,3,20,0,0,-1,0
12904308950,-10,-10,-2,-35,-9,0,-1,0
12904318605,2,1,-24,1,1,-2,-2,1
12904318605,-3,-1,19,-12,-6,-3,0,-2
12904327533,0,7,12,31,16,1,-1,-1
12904327533,7,2,-6,-7,-2,-2,-1,1
12904342390,-2,-4,-9,-4,-9,-3,-3,-3
12904342390,-6,-3,6,-23,-8,-1,0,-2
12904344003,0,-6,3,-1,-6,-5,-6,-4
12904344003,-1,4,14,-6,1,1,1,0
12904364931,-1,-5,-37,2,5,4,-1,1
12904364931,-1,1,13,5,-2,-3,-1,-3
12904366518,-1,-2,-3,-7,-4,-5,0,1
12904366518,1,3,-7,7,-4,-5,-2,-3
12904378627,-3,-8,14,4,2,-1,0,0
12904378627,1,-2,-18,-5,1,-1,-1,0
12904395031,-2,3,10,-1,-5,-3,-3,-2
12904395031,1,0,-10,0,-3,-1,-2,0
12904402397,-3,-1,26,-8,-3,0,-1,-3
12904402397,-1,-1,-21,5,3,0,2,1
12904404078,3,7,11,-4,-1,4,2,1
12904404078,2,-1,4,5,-5,0,0,0
12904425046,-1,-2,-8,-2,-6,-5,-2,-2
12904425046,-3,-4,8,3,-4,0,0,-2
12904426710,0,0,-10,-14,-1,2,2,-2
12904426710,-1,1,15,26,3,-3,-2,-1
12904438658,0,1,-8,-2,-3,3,-1,2
12904438658,0,-1,-17,-10,3,-3,-2,0
12904447542,-1,-2,-1,7,-5,-9,-6,-3
12904447542,-2,5,-12,-35,2,15,5,1
12904462524,1,0,27,5,-4,-4,-1,-1
12904462524,-2,3,-3,21,5,2,2,-1
12904464191,-3,2,-5,-18,-10,-7,-3,-1
12904464191,-2,-9,-18,6,0,-3,-1,-1
12904484924,-1,5,48,5,6,6,2,1
12904484924,1,2,-11,-20,1,4,1,0
12904486514,-6,-14,-19,-8,-9,-4,-2,-4
12904486514,-1,-2,6,12,0,-5,-2,-3
12904498663,-5,-1,-23,-6,0,-2,-2,-3
12904498663,1,-4,17,8,-2,-4,-2,-1
12904507576,-2,1,4,8,8,7,3,2
12904507576,0,-2,2,11,-3,-6,-3,-1
12904522592,-2,-6,-5,-18,-8,-3,0,-1
12904522592,0,-1,1,0,-8,-6,-5,-3
12904524064,-3,-3,3,5,3,3,1,0
12904524064,-1,-3,-29,-17,-13,-5,-2,-2
12904545495,-6,-8,-17,-4,-5,-7,-7,-5
12904545495,0,0,-5,14,2,6,3,0
12904547048,1,-2,-9,-26,1,1,-1,2
12904547048,-3,-4,-5,0,-3,-3,-3,-2
12904558724,2,4,-4,19,-1,-2,0,0
12904558724,-1,-1,10,-19,-1,0,-3,-1
12904567542,1,1,1,4,-3,1,1,0
12904567542,1,5,38,15,1,-2,-1,-1
12904582482,-2,2,-6,-12,0,-2,-2,-3
12904582482,0,-2,1,-2,-1,0,0,0
12904584122,1,4,3,2,-4,-3,-3,-1
12904584122,0,-3,-24,-1,7,0,-3,-1
12904605016,0,-1,20,-3,-1,3,2,-1
12904605016,-4,-4,5,11,-2,-3,-1,-3
12904606642,-1,-3,-8,-2,2,-1,-1,-1
12904606642,-2,-3,-16,-31,-12,-5,-3,-3
12904618705,-4,-1,-4,7,2,-2,-2,-3
12904618705,6,9,5,7,4,0,2,1
12904627571,-3,-1,13,1,0,1,0,-2
12904627571,-4,-5,-4,8,-5,-2,-2,-2
12904644042,3,1,1,6,6,2,2,2
12904644042,-5,-8,-55,-36,-14,-8,-6,-3
12904645639,0,6,36,17,6,1,1,-3
12904645639,-2,-5,3,-7,1,0,0,-2
12904665065,-2,-2,-16,-9,-4,-2,-1,0
12904665065,0,2,9,14,1,0,-1,-1
12904666592,-1,-7,-17,-5,-7,-4,-4,-1
12904666592,-4,0,5,3,1,1,0,-1
12904687556,0,2,9,-10,-1,0,3,-1
12904687556,-1,-1,-11,7,0,-3,-2,-1
12904689015,1,-1,3,19,-1,-2,-2,-2
12904689015,5,4,1,-15,-2,-2,0,1
12904702419,-3,0,15,13,-1,-2,-4,-2
12904702419,-3,-3,18,-6,0,2,2,0
12904704011,-2,-1,-9,2,-4,0,-1,-4
12904704011,-1,-2,10,10,3,2,1,-1
12904725046,-1,-2,-15,6,2,-3,-2,0
12904725046,0,3,2,1,-4,-2,-1,0
12904726626,-3,3,13,4,4,5,2,-1
12904726626,-1,-2,-7,1,3,1,0,0
12904747512,3,2,-9,-27,-1,1,0,1
12904747512,0,-3,20,30,2,-2,-2,2
12904749148,-4,-12,-29,-16,-4,-4,-2,-2
12904749148,0,3,11,-5,-2,0,0,-1
12904762487,-1,-3,-9,-4,-5,-1,-1,-3
12904762487,-2,-5,-5,-6,-6,-1,-2,0
12904764044,1,4,12,-13,-2,-3,-2,-1
12904764044,-1,0,-8,5,-2,-1,-2,0
12904785095,-1,-3,15,9,2,-1,-1,-1
12904785095,-1,-3,-14,-6,-1,-1,1,-1
12904786573,-1,-1,-3,-14,-4,0,1,1
12904786573,0,3,1,15,0,0,-2,-2
12904807510,-1,-4,-29,-7,4,2,0,0
12904807510,-2,2,-1,-4,-5,-3,-2,-2
12904809049,0,-1,4,4,-6,-4,-3,-1
12904809049,-5,-8,14,-16,-1,-1,-3,-3
12904822503,-1,1,15,15,0,0,0,0
12904822503,0,-1,-18,-5,2,1,1,-1
12904824084,3,8,7,2,-2,-5,-2,1
12904824084,-7,-11,0,-8,-6,-4,-4,-4
12904845035,0,-1,-4,6,1,-1,-3,1
12904845035,0,0,1,1,-2,0,-1,-2
12904846622,-1,3,-13,-9,-2,-2,-1,-1
12904846622,1,3,2,6,-3,-2,-2,0
12904867467,-1,-2,7,8,2,3,1,0
12904867467,-4,1,-25,-13,-4,-2,-2,-1
12904869093,-2,-6,-6,-1,-1,-4,0,0
12904869093,-1,2,12,-3,-10,-3,0,-2
12904881913,-3,-5,4,18,-3,-3,-2,-4
12904881913,3,1,32,-5,9,5,1,3
12904888652,-1,0,7,16,2,4,0,-1
12904888652,0,-1,-23,-4,-4,-2,1,0
12904904944,2,5,9,-11,-2,1,1,-1
12904904944,1,0,9,-1,-4,-3,-1,-1
12904906557,-7,-9,-9,-23,-8,-2,-2,-2
12904906557,2,5,17,7,-5,0,-2,-1
12904927423,-1,0,-8,15,11,1,0,1
12904927423,-2,-2,-20,3,-4,-2,-2,-2
12904928976,-1,2,10,14,8,2,1,-1
12904928976,1,0,-12,-8,-4,-3,-3,1
12904941815,-2,-5,7,-9,-20,-8,-5,-5
12904941815,-3,-13,-33,-23,25,2,-1,-1
12904948730,0,5,26,-3,-12,2,0,0
12904948730,-1,-2,-24,-4,3,-2,1,-2
12904965078,-3,-4,10,2,-5,-3,-3,-2
12904965078,1,3,-5,-10,-7,-4,-2,-1
12904966578,2,1,6,11,7,-2,0,-1
12904966578,-3,5,41,14,0,1,-1,-1
12904987560,0,-1,-12,-12,1,5,3,2
12904987560,-3,-1,-11,-16,-6,0,-1,-2
12904989080,0,-2,4,-3,-3,-1,-1,1
12904989080,1,1,1,-1,-3,0,0,1
12905001775,1,1,-28,-8,-3,-2,-1,1
12905001775,-4,-2,16,-3,-10,-3,-4,-3
12905016619,0,-5,-12,6,-2,-3,-2,-2
12905016619,-3,-4,-5,-2,7,0,2,-2
12905024895,0,0,-9,-6,-3,-2,-1,-1
12905024895,-1,1,18,10,7,-2,0,-2
12905026518,-5,-10,-42,-25,-5,0,-2,-5
12905026518,0,0,-13,7,3,3,1,0
12905047546,-3,0,37,0,-3,-2,-3,-1
12905047546,-1,-4,-12,16,-2,-2,0,-2
12905048984,3,-1,-8,3,-2,-4,-2,0
12905048984,-3,-5,-9,-21,1,1,0,-2
12905061847,-2,-5,-13,-15,3,4,3,-2
12905061847,-1,1,24,33,-3,-4,-4,-2
12905068653,0,5,-3,-4,2,3,1,1
12905068653,-2,-8,-8,0,1,-2,-3,-1
12905084930,-3,2,12,-26,-11,-3,-4,-3
12905084930,1,1,-14,6,-2,1,-1,1
12905086499,0,-2,21,11,3,1,0,-3
12905086499,-1,-5,-24,-21,4,-1,0,0
12905107583,2,2,10,10,4,-2,1,1
12905107583,-1,-7,5,-12,-7,-3,-1,-2
12905109022,0,2,4,25,1,-3,-1,0
12905109022,-3,-3,-9,-12,0,-2,-3,-1
12905121872,-4,-7,-13,9,0,0,0,2
12905121872,2,0,11,-3,1,4,1,2
12905128568,-2,0,2,-6,-1,-4,-3,-1
12905128568,-1,2,10,11,-3,-4,-5,-1
12905145037,2,0,-16,-4,-1,-2,0,0
12905145037,-3,-3,3,2,-1,4,2,-1
12905146516,-4,0,11,-2,-3,-2,0,-1
12905146516,0,2,-16,-2,-3,1,1,-2
12905167508,-2,-1,1,11,4,-1,-4,-2
12905167508,2,3,14,4,-6,-3,-2,0
12905169158,-1,-7,-14,-6,-2,-1,-3,-1
12905169158,-1,0,25,-14,-6,0,0,1
12905181799,0,8,0,10,0,-4,-3,-3
12905181799,0,0,5,-4,0,2,0,0
12905188579,-5,-5,-7,-16,-1,-1,0,-3
12905188579,1,5,-9,8,-1,-2,0,1
12905205029,-2,-3,3,-13,-6,-3,-3,-2
12905205029,-3,0,15,24,11,1,-1,-1
12905206657,0,0,-19,-9,-9,-2,-2,0
12905206657,0,-3,-13,-4,10,-2,-2,0
12905227412,0,3,21,-1,-6,3,3,0
12905227412,-3,-4,-14,-21,-10,-4,-1,-2
12905229058,-6,-8,1,8,6,1,-1,-2
12905229058,-1,-8,-39,-3,-3,-4,-3,-4
12905241206,2,0,-11,-7,-2,-1,-2,-1
12905241206,-2,1,12,-2,-3,-2,-1,-2
12905250071,2,3,-14,-3,1,1,-1,1
12905250071,-2,1,23,5,-6,-1,-1,-1
12905265071,-2,-3,-12,1,1,-4,-2,-2
12905265071,-3,-1,-4,12,4,0,0,-1
12905266496,0,3,14,-2,-9,-5,-5,-1
12905266496,-3,-1,-2,2,-4,0,-2,-2
12905287483,-3,-6,-5,-8,-3,-1,-1,-1
12905287483,1,5,30,-3,-2,0,0,0
12905288980,-3,-5,-46,-7,2,1,0,-3
12905288980,-5,-3,22,4,2,-4,-3,-4
