timestamp,emg1,emg2,emg3,emg4,emg5,emg6,emg7,emg8
117922934185,0,3,9,-1,1,-1,0,-1
117922934185,-1,-1,-12,2,0,0,1,-1
117922935039,-4,-1,16,-7,-1,-2,-3,-4
117922935039,-1,-5,-21,0,-1,-1,-2,-3
117922939818,-4,2,30,1,1,-1,-1,-1
117922939818,1,-3,-35,2,0,0,-3,-1
117922941325,2,-1,-2,-1,1,-1,-1,-1
117922941325,-9,4,2,0,-3,-1,-2,-1
117922944673,6,4,-2,2,-2,0,-1,0
117922944673,-5,-8,9,-8,-5,-6,-3,-4
117922960526,-5,-10,-7,6,2,0,0,0
117922960526,3,4,-4,-16,-3,0,2,4
117922961308,-4,1,-6,3,-6,-3,-2,-5
117922961308,3,12,23,-3,2,2,0,-2
117922971336,0,-6,-34,-2,-3,-2,-1,2
117922971336,-2,-1,18,-2,-6,-1,-3,-8
117922983503,-1,-6,-46,1,1,-1,-1,1
117922983503,1,2,16,-7,-6,0,0,6
117922999155,0,0,12,2,1,-1,-2,-14
117922999155,-1,-2,-1,6,2,-1,-2,2
117923001334,-4,-5,-3,-7,-1,0,-1,-1
117923001334,3,-2,4,6,-1,-2,0,4
117923020580,1,4,-4,-2,2,1,2,7
117923020580,-6,-1,-7,-4,-2,-4,-5,-27
117923021462,5,2,7,2,1,-1,-2,3
117923021462,-4,-5,-5,-6,-5,-1,3,6
117923068157,2,-3,-41,-1,4,-1,1,4
117923068157,-1,-3,18,4,-2,-3,-5,-7
117923068969,0,-6,-8,-7,-1,-1,0,3
117923068969,0,7,1,2,-1,-1,0,-2
117923069774,-3,-1,10,-2,-1,0,0,-1
117923069774,0,-8,-8,-1,0,0,-2,0
117923073856,1,5,6,4,-2,1,-1,-2
117923073856,0,0,-10,-4,-1,-1,-3,5
117923079683,0,-13,13,1,-1,1,0,0
117923079683,-6,1,-17,-3,-1,-2,-3,-12
117923088639,-2,-3,1,-4,-2,-1,-1,0
117923088639,-2,0,3,7,0,-2,0,1
117923094698,2,4,0,-12,-6,-1,0,2
117923094698,3,1,6,6,2,-1,1,6
117923111144,-4,-7,-31,-5,0,1,-1,0
117923111144,-3,1,8,-3,-2,-2,-1,-14
117923117330,-1,2,6,4,0,-1,0,2
117923117330,-5,-1,2,-1,-1,2,2,-1
117923140505,1,5,6,1,-2,-2,-1,0
117923140505,-1,-6,-3,-1,0,-1,-1,5
117923141130,0,1,-1,2,-2,-1,-2,-5
117923141130,5,3,13,-5,-1,1,0,8
117923155358,-10,-3,-2,2,0,-2,-1,-8
117923155358,-1,-1,-4,-5,-3,2,-1,1
117923156210,0,1,1,0,-1,-1,-2,-2
117923156210,0,3,-5,3,-3,-2,-1,0
117923177823,1,-7,4,-1,1,0,1,4
117923177823,1,2,2,6,0,-2,-1,-1
117923178763,2,7,5,-7,-4,-2,-1,2
117923178763,-6,-21,-1,-1,8,2,1,-2
117923200347,-5,5,-7,-7,-7,-3,-5,-9
117923200347,0,-1,13,3,3,-1,0,0
117923201129,0,1,1,1,-4,-2,-1,-1
117923201129,4,3,-2,-1,-4,-1,0,1
117923215329,4,2,19,1,4,-1,0,4
117923215329,-3,-6,-49,-4,-1,-3,-2,-13
117923216122,-8,-7,-12,-1,0,-3,-1,3
117923216122,-4,1,3,2,-4,-1,-3,-15
117923237855,3,5,16,5,4,-1,1,1
117923237855,-2,-11,-20,-4,-7,-2,-1,2
117923238673,-1,-3,-8,-1,2,0,0,-3
117923238673,0,4,1,-7,-5,-4,-1,3
117923260339,0,-1,-7,2,-1,-2,-2,-2
117923260339,-1,2,-1,-1,-1,-2,0,0
117923261097,0,-3,6,3,3,1,1,4
117923261097,-1,1,-7,0,0,-1,-1,-1
117923275418,-3,3,-1,-2,-3,-1,-3,-1
117923275418,-1,-8,32,-3,0,0,-1,2
117923276111,-4,2,-25,-2,-2,-4,-2,-7
117923276111,2,6,4,5,2,-1,1,6
117923297821,6,1,-6,-4,-3,0,2,2
117923297821,-3,-6,4,-10,-5,2,2,3
117923298645,4,1,-5,6,4,-1,-2,6
117923298645,-7,-7,-11,-5,0,-2,-6,-16
117923320407,1,4,10,-14,-6,-2,0,1
117923320407,0,-1,-6,4,1,-3,-2,3
117923321256,0,2,13,-3,-4,-1,0,-8
117923321256,-3,-4,0,5,3,-3,-3,2
117923335428,-3,-1,1,3,-2,-1,-2,-2
117923335428,-1,-2,-38,-8,-5,0,-2,-4
117923336243,-3,-2,9,2,2,2,0,-2
117923336243,5,5,4,-4,-3,-2,0,3
117923357877,-3,-3,9,1,1,-2,0,0
117923357877,-1,1,2,0,-2,-2,-2,0
117923358611,0,0,0,-1,0,1,0,-1
117923358611,2,3,-5,2,-1,3,2,6
117923380469,-4,-5,-16,-10,-6,1,-2,-14
117923380469,-3,-6,0,6,7,-1,-2,-1
117923381194,0,0,11,-6,-4,2,-1,3
117923381194,-4,0,1,-3,-3,-2,-5,-11
117923402856,1,1,-9,9,0,-2,0,-1
117923402856,1,7,17,8,1,0,2,-2
117923403635,-1,-2,14,-6,-2,0,1,2
117923403635,0,0,-7,-6,-2,-1,1,2
117923426016,-5,-16,-22,2,-2,-3,-2,2
117923426016,0,3,-2,-5,1,0,-2,-3
117923426789,1,-1,9,3,-2,-2,-3,1
117923426789,-1,1,1,-2,-1,-3,1,1
117923440474,-2,-2,-10,0,2,-2,-1,-1
117923440474,5,10,25,7,0,-2,-2,0
117923441112,-7,-9,-19,-17,-7,-1,0,-2
117923441112,-4,-7,-2,1,0,0,-1,3
117923454678,-1,4,5,-15,-5,1,-2,-11
117923454678,-1,5,0,-1,1,1,0,3
117923479178,-1,-5,-7,5,3,-2,-5,-8
117923479178,2,-1,9,1,-1,0,0,1
117923480785,1,1,4,6,3,0,-1,3
117923480785,-2,3,2,-3,-2,-1,0,3
117923481605,2,2,0,0,-4,-2,0,-2
117923481605,-5,-4,-2,-2,1,-1,-2,-5
117923508499,0,-1,-4,5,2,0,-1,5
117923508499,-2,2,26,-8,-7,-1,-2,-6
117923509275,0,-2,-44,-1,-3,-3,-1,0
117923509275,-3,-1,0,-1,-3,-1,-2,2
117923514618,-1,0,3,2,-4,-2,1,0
117923514618,-3,-4,-6,-2,1,-1,-3,-5
117923522252,-1,1,13,8,-2,-2,-1,-2
117923522252,0,-1,-4,3,4,0,0,1
117923537925,5,3,-10,-19,-7,-1,-1,0
117923537925,-4,-5,-8,-4,-4,-3,-1,1
117923538753,3,1,3,-1,5,-1,1,5
117923538753,0,-1,-6,5,-2,-2,-6,-9
117923560315,-4,-4,12,6,3,-1,-4,-10
117923560315,2,1,-14,-4,-2,0,0,1
117923561095,-3,0,26,-2,-1,-2,1,-2
117923561095,-2,-1,6,-4,-1,-1,0,3
117923574649,4,3,0,6,5,1,1,4
117923574649,-5,-6,-5,-5,-4,0,-1,-3
117923582228,-1,10,5,-6,-3,-2,-4,-4
117923582228,2,-3,7,0,0,-1,0,3
117923597819,-4,0,0,-2,-4,-3,0,4
117923597819,-2,0,-3,14,11,1,-3,-15
117923598587,0,0,8,-7,-9,1,-1,1
117923598587,1,3,-9,-4,1,0,-1,-1
117923620320,-1,-2,10,-7,-3,-2,0,3
117923620320,1,-3,-10,-4,-3,-2,-2,0
117923621124,-3,-4,-9,2,1,1,0,-3
117923621124,-2,4,18,0,-5,-2,-2,-1
117923634661,-2,-2,-11,4,2,-1,0,0
117923634661,1,-3,7,-1,-3,-1,1,2
117923642154,2,0,-7,1,4,0,1,-4
117923642154,-8,-5,-8,2,-4,-1,-2,-7
117923658033,0,-4,10,-2,-1,0,0,0
117923658033,1,-2,-12,-5,-3,-1,-2,1
117923658686,-2,0,-3,1,1,-2,-1,4
117923658686,1,0,-10,1,3,-2,2,1
117923680328,1,1,3,-3,-5,0,0,-1
117923680328,1,-2,-1,0,-1,0,-2,3
117923681116,2,53,6,1,0,-1,0,1
117923681116,-2,2,2,-3,-1,1,0,1
117923694668,-3,-10,-18,2,0,-1,-1,2
117923694668,3,5,8,-2,1,0,-3,-10
117923702173,-1,-21,10,-2,-2,-3,-4,-3
117923702173,-2,0,-11,1,-5,-1,-1,-1
117923717914,-5,11,7,-9,5,2,2,4
117923717914,-4,1,-6,4,-1,0,1,-5
117923718763,1,-10,11,-6,-5,-1,-3,-1
117923718763,6,2,-16,-1,-2,-2,0,-1
117923740378,-6,-17,-16,2,-2,-4,-4,-4
117923740378,1,-1,14,1,-3,-3,-1,2
117923741164,-3,-16,-17,3,-1,-1,-1,-4
117923741164,3,2,5,-11,-5,-1,1,1
117923754704,1,8,22,6,4,1,-2,-4
117923754704,-2,-2,-46,-9,-3,-1,-1,1
117923762306,-1,1,1,4,-1,-1,-1,-1
117923762306,-2,-6,-7,-2,-1,0,0,1
117923777836,0,-7,1,5,-4,-3,-2,-3
117923777836,-3,-3,8,0,5,1,0,2
117923778719,-1,-6,-5,-12,-4,-1,0,-3
117923778719,-5,-5,-6,-4,-1,-2,-3,-1
117923800372,-1,0,-2,1,-3,-3,0,-3
117923800372,1,1,13,6,-3,-2,-1,0
117923801134,-3,-5,-20,1,7,0,-1,-3
117923801134,0,-2,7,-4,-2,0,0,0
117923816172,2,6,-1,-7,-8,-3,-3,2
117923816172,3,4,18,2,-3,-1,1,0
117923822312,-15,-13,-29,1,-2,0,-3,-2
117923822312,2,1,15,-6,-2,1,-2,0
117923837988,1,-4,-17,5,4,1,2,2
117923837988,1,1,2,-1,-2,0,0,2
117923838638,0,-4,3,-6,-3,0,-2,-8
117923838638,-1,3,8,9,2,-2,-1,-1
117923860354,0,-1,-18,-4,-5,0,-1,2
117923860354,0,10,10,-4,0,-1,0,2
117923861102,0,-15,2,6,1,1,0,0
117923861102,-5,1,-16,-4,-5,-2,-2,-3
117923882967,2,3,3,2,5,1,-2,-3
117923882967,-2,-1,4,-1,-4,-3,-1,-1
117923883668,1,5,1,-3,-1,0,-2,1
117923883668,-2,-2,14,0,-1,-2,-1,-1
117923897879,-3,-4,-46,0,0,-3,-3,-3
117923897879,-4,-6,1,5,1,1,1,-2
117923898639,1,0,5,-6,-6,-2,0,2
117923898639,1,-3,1,3,8,0,-1,0
117923920298,0,5,20,-1,-4,-1,-3,-2
117923920298,-4,-4,-12,-4,1,-3,-3,-2
117923921146,2,2,0,7,2,-1,0,2
117923921146,-1,-1,0,5,-2,-1,1,0
117923942861,1,3,6,-11,-1,-1,-2,-5
117923942861,-2,-15,-20,0,-1,-2,0,1
117923943621,5,5,7,-2,0,1,0,0
117923943621,-4,-1,-6,-3,2,1,0,4
117923957600,1,0,-12,1,0,0,0,-2
117923957600,0,-1,9,-3,-4,-2,-1,-8
117923965390,0,3,4,-2,-1,-3,-1,3
117923965390,-1,-1,-8,0,-1,-1,-1,-3
117923980466,-3,-7,6,-3,-4,-3,-4,0
117923980466,-4,1,2,-5,-2,0,0,-1
117923981151,2,2,-12,3,3,-2,-1,-2
117923981151,-2,0,13,-4,-2,-2,-1,-3
117924002799,-2,-1,4,2,-1,-1,0,0
117924002799,0,1,2,-2,-2,-2,-1,3
117924003580,-2,0,6,5,-2,0,-1,-2
117924003580,2,2,13,-12,-7,-2,0,-1
117924019457,-7,-11,-38,-14,3,-1,0,0
117924019457,-1,-5,7,2,-3,-3,0,0
117924020218,-1,1,-3,1,-3,-1,-1,-8
117924020218,2,5,-1,3,-2,0,-3,4
117924039698,2,-7,17,8,4,0,1,6
117924039698,-3,1,-6,-7,1,-1,-8,-14
117924047901,-1,0,3,-3,-3,-1,1,2
117924047901,2,-1,-13,3,4,-1,0,-2
117924062930,4,7,21,-6,-6,0,1,2
117924062930,-2,-3,-23,-2,3,1,0,4
117924063716,-1,-3,4,1,-4,-1,-2,-3
117924063716,0,1,-8,-7,-3,-2,-2,-5
117924085852,-2,-2,5,5,2,0,0,-1
117924085852,-2,-3,31,2,-2,-3,0,-1
117924086504,-4,-3,-23,4,0,0,-1,-2
117924086504,-6,-4,-11,2,1,-2,1,0
117924108519,-1,4,1,-13,-10,0,0,-2
117924108519,1,3,11,-1,4,-1,1,1
117924109294,-3,-6,1,-4,-5,-1,0,1
117924109294,-1,-4,-19,-2,1,-2,-3,-1
117924130195,0,3,10,7,1,-3,-1,-3
117924130195,0,3,-12,0,-6,-2,-1,1
117924137874,-2,-2,-1,-4,4,0,-1,-1
117924137874,-1,-2,-10,-1,-3,0,-2,-2
117924153507,3,1,6,-1,-3,-1,1,2
117924153507,-16,-12,-14,-4,-3,-4,0,1
117924154342,0,0,-6,0,-2,-3,-1,-1
117924154342,-3,-4,21,-3,-1,-3,-4,-13
117924168480,1,3,0,5,3,-2,-3,-1
117924168480,2,1,-4,0,-3,1,0,2
117924169400,-2,-1,35,-1,2,-1,0,4
117924169400,0,-4,-67,-2,-1,0,1,1
117924182702,-4,-1,2,-4,-3,-2,-1,-2
117924182702,1,0,6,0,1,1,1,-1
117924190375,-1,0,-6,-2,0,0,-2,-3
117924190375,2,0,12,6,1,-2,-2,2
117924206012,-2,1,5,-11,-2,1,0,-3
117924206012,-2,-7,-16,-6,-5,-5,-2,-1
117924206784,0,1,-8,-3,-2,-4,-1,-2
117924206784,-1,-2,11,1,-4,-1,0,-1
117924219789,-1,-3,-23,10,3,-2,0,4
117924219789,3,5,10,6,6,0,-2,-2
117924235470,-2,0,2,-15,-11,-3,-2,-4
117924235470,0,-4,1,-8,1,-2,1,2
117924242881,-2,-5,-4,3,0,0,-1,-5
117924242881,3,4,-1,0,1,1,-1,2
117924243620,1,-3,-13,5,1,-1,-2,-2
117924243620,-4,1,8,0,1,-1,0,0
117924266058,-3,-2,4,-4,0,-2,-2,-1
117924266058,0,-2,-9,-3,-6,-4,-4,-9
117924272957,2,2,6,3,0,-1,1,1
117924272957,-13,-6,3,-3,-3,-1,0,-2
117924279681,-3,-5,-12,4,-3,-2,0,1
117924279681,1,-1,-6,6,6,0,0,1
117924287888,-1,1,34,-10,-2,0,-1,-1
117924287888,2,0,-19,-3,-3,-1,-1,2
117924302823,-1,-1,4,-3,-2,-3,-1,-3
117924302823,-7,2,8,4,0,-1,0,-7
117924303631,-1,-12,-17,1,5,-1,-2,2
117924303631,0,-2,5,1,-3,-1,-1,0
117924325971,-1,1,0,-1,-2,-1,-1,-2
117924325971,2,1,-3,-3,-4,-1,0,3
117924326756,-2,-2,-14,2,3,-1,1,-2
117924326756,2,-1,3,1,-1,-1,-1,-2
117924348943,0,-1,-4,1,-1,-1,-1,-1
117924348943,2,2,30,-1,-2,1,1,2
117924349744,-5,-5,-51,0,-6,-2,-2,2
117924349744,-1,3,3,-1,2,-1,-2,-10
117924362753,-1,-6,13,-4,-2,-1,0,0
117924362753,-6,-2,3,-2,-3,-1,-2,0
117924363515,-1,2,7,3,0,1,-1,-1
117924363515,0,0,0,1,0,-1,0,3
117924386071,1,3,1,-2,-4,-3,-1,-2
117924386071,1,-5,-12,-4,-4,0,-1,-2
117924386754,-5,-3,4,7,-1,-2,-1,-1
117924386754,2,1,-2,-15,-3,0,-2,1
117924408505,-4,-1,7,6,4,-1,-2,-2
117924408505,-1,-3,-23,-2,-2,0,-1,2
117924409288,-1,5,14,-6,-3,-2,-1,-3
117924409288,0,-6,-6,6,0,-1,-2,-3
117924422942,-2,2,-1,0,0,0,0,-1
117924422942,0,1,-1,-3,0,-1,-1,1
117924423550,0,-1,3,0,2,0,-2,-1
117924423550,-4,-4,1,-3,-3,-2,-2,-8
117924445279,-2,1,-2,-1,-3,-2,-2,3
117924445279,3,-1,-6,-3,-2,-1,-1,-2
117924446061,-4,-2,3,-2,2,-2,1,3
117924446061,2,5,3,-1,0,0,-2,-9
117924468642,-3,-4,-2,0,-3,-2,-1,-3
117924468642,-1,-1,2,0,-2,0,1,0
117924469442,1,1,-1,-3,-2,-3,0,2
117924469442,1,0,0,1,0,-3,-1,4
117924491010,0,2,-3,2,0,-1,-1,-2
117924491010,1,-2,15,0,-1,-1,-1,-1
117924491782,2,-4,-34,-3,-3,1,0,0
117924491782,-8,-3,8,2,-1,0,-1,3
117924505265,2,-1,12,-1,0,0,-1,-2
117924505265,-3,-2,-11,-1,-1,-1,-1,-1
117924506068,4,3,13,1,-3,1,-1,-4
117924506068,-6,-1,7,8,1,-1,-1,2
117924528473,-2,-11,-28,-14,1,2,0,-1
117924528473,0,-1,15,3,-1,-3,-3,-1
117924529287,1,2,12,4,-1,1,-1,-1
117924529287,6,4,16,-1,-8,-2,1,2
117924542818,-3,0,-12,15,7,0,-3,-2
117924542818,-2,2,-5,-34,-7,2,0,0
117924543622,-1,-4,0,18,11,0,0,-2
117924543622,3,-6,15,-31,-20,-2,1,3
117924565301,-1,-2,-15,12,0,-6,-1,-3
117924565301,0,-1,-24,29,-10,-6,-3,-3
117924566077,0,2,1,13,34,6,0,-1
117924566077,2,7,40,11,5,2,0,1
117924587558,-1,7,-18,-40,-36,-12,-3,-3
117924587558,-6,-23,-38,20,18,5,-3,-2
117924597191,-2,-5,-12,-49,-10,2,-2,1
117924597191,-4,-4,-23,-1,-5,-8,-1,-2
117924602806,2,7,21,13,13,5,3,0
117924602806,-2,3,2,0,-10,-13,-4,1
117924603583,-2,-3,9,27,-5,-4,-7,-4
117924603583,4,-5,-16,-3,17,-3,-5,1
117924625307,-7,-2,19,9,-11,13,11,0
117924625307,-3,-18,-23,-20,12,2,-11,-4
117924626073,-4,1,-6,-28,-25,-35,9,-1
117924626073,-5,6,24,1,-24,1,-11,-13
117924648552,5,6,-23,20,36,39,8,8
117924648552,3,10,70,-34,15,4,8,10
117924649306,1,4,18,9,-32,-19,-7,1
117924649306,-12,-19,-29,-43,-44,-98,-24,-10
117924662903,1,3,21,40,5,34,-30,-11
117924662903,1,-1,-30,-9,-5,59,38,2
117924663663,13,9,8,0,66,21,7,16
117924663663,5,15,18,38,22,-6,16,11
117924685287,-6,-21,-28,-3,-59,-46,-11,-6
117924685287,6,31,49,-28,-65,15,-5,-4
117924686052,-3,-18,-83,9,73,35,4,-6
117924686052,-10,-23,-2,10,-23,23,2,1
117924708521,3,13,0,-24,-23,-80,-12,0
117924708521,-8,-42,2,2,-16,3,-17,-13
117924709254,1,10,17,-9,-128,-84,-7,-5
117924709254,5,0,-30,2,110,-6,-4,-1
117924731007,-2,0,2,-14,-97,112,27,3
117924731007,6,15,3,43,107,18,28,8
117924731780,4,8,35,53,112,6,13,7
117924731780,0,7,-9,10,-77,-78,-13,2
117924745295,-3,2,10,-59,-98,-128,-28,0
117924745295,-15,-8,-35,-31,-100,-53,-23,-19
117924746069,-9,-17,-15,-26,-18,25,1,-7
117924746069,-1,1,2,-8,1,44,3,1
117924768569,0,-3,2,12,56,26,17,1
117924768569,1,0,-7,5,20,3,-7,4
117924769316,-4,-1,13,-11,-16,9,-7,-7
117924769316,3,6,5,15,10,26,10,0
117924782895,3,11,38,0,44,26,4,0
117924782895,-6,-22,-80,8,17,-24,-7,-1
117924783657,-5,4,43,-10,-35,-10,-7,-4
117924783657,2,1,14,-2,-13,24,3,0
117924813626,-1,-6,-34,12,44,-5,-2,-2
117924813626,1,17,26,7,-1,-16,-3,1
117924814334,-9,-11,-10,-8,-21,3,-2,-2
117924814334,-3,-3,-12,-6,-3,17,1,-3
117924837291,-3,-5,9,8,32,-5,0,-1
117924837291,1,10,14,6,-10,-16,-2,3
117924838099,4,20,-11,-15,-23,7,-5,-2
117924838099,0,10,11,8,20,10,7,2
117924851013,0,5,-26,-8,-1,-14,-7,-7
117924851013,7,-65,74,29,12,12,12,16
117924851781,6,11,-12,-3,3,0,-4,-2
117924851781,-7,-53,-33,-16,-3,8,4,-1
117924876627,-3,55,-18,4,2,-1,1,-1
117924876627,-1,16,-2,-7,-5,-6,-3,-5
117924876648,1,-22,-13,0,-2,-2,0,2
117924876648,34,-30,53,5,0,2,3,26
117924888476,-37,-8,28,5,17,19,12,-16
117924888476,-4,35,4,6,7,-6,-2,-8
117924889327,-1,17,18,1,-7,-2,-1,3
117924889327,-10,30,-54,-13,-11,-3,-8,-13
117924903230,15,-8,13,2,7,-4,-1,11
117924903230,2,10,2,-4,-3,-6,-2,-1
117924904030,-5,-14,-23,-5,-5,1,-1,-9
117924904030,31,1,6,0,-3,3,4,14
117924927179,-55,-28,25,-2,6,-1,-2,-10
117924927179,25,3,-31,-11,-10,-10,-10,-3
117924927220,12,0,-1,-2,-9,0,-2,-2
117924927220,-11,2,11,6,11,7,4,-1
117924948484,15,-9,12,4,5,-2,3,7
117924948484,-13,5,-25,-10,-15,-15,-7,-4
117924949280,-9,-1,33,10,-10,10,2,-1
117924949280,3,12,0,-6,32,16,2,-3
117924962100,14,-11,-12,14,0,3,-3,-1
117924962100,-5,-5,-1,-19,-13,-11,-4,4
117924977771,3,-10,-7,-31,25,6,-1,0
117924977771,-15,8,-2,-1,-32,-12,-5,-10
117924985302,11,0,-13,0,2,-7,-3,3
117924985302,-5,-2,11,16,-6,-4,-1,-2
117924986078,-7,-5,-18,9,-12,-8,1,-2
117924986078,-7,11,-6,-9,0,-2,-3,-5
117925008647,7,0,0,-10,-1,1,0,1
117925008647,-4,0,-1,5,0,0,-1,-1
117925009247,-7,-6,5,1,4,-2,-2,-3
117925009247,-5,2,-4,7,0,-2,-5,-3
117925022372,12,-15,-3,-6,-8,-6,-2,0
117925022372,-3,7,10,-3,5,7,2,-3
117925030338,3,1,-7,3,-3,-3,-2,1
117925030338,-18,-7,-6,0,-6,-3,-2,-4
117925045285,4,-3,2,-7,0,-1,0,1
117925045285,3,27,5,0,6,2,1,1
117925046061,-9,-2,3,-2,-15,-5,-3,-8
117925046061,3,5,-6,11,-2,-3,-6,-3
117925068478,3,0,-5,-30,11,4,5,4
117925068478,-2,-7,-2,5,3,2,-2,-1
117925069245,5,1,-1,6,-8,-4,-4,0
117925069245,-4,4,1,-4,-9,-12,-4,-2
117925082090,-1,-2,-7,0,-4,-7,-9,-6
117925082090,4,-8,-5,1,-3,11,13,6
117925090300,-2,3,8,3,11,4,5,6
117925090300,2,-4,-9,-7,-4,-3,6,0
117925113510,-1,-3,-3,-1,-3,-5,-19,-8
117925113510,0,-4,-6,-2,1,-1,5,0
117925114307,-1,-2,1,4,2,1,1,1
117925114307,-6,-3,0,-5,0,0,-4,-5
117925128496,3,2,-2,-2,-11,-6,-3,1
117925128496,-2,-6,-3,-1,6,6,3,1
117925129300,-2,2,1,2,6,1,-1,0
117925129300,0,-5,-2,-5,-7,0,0,-1
117925142117,3,3,3,0,1,0,2,1
117925142117,-11,-9,-12,-2,-2,-3,-7,-8
117925150337,-1,-2,0,-4,-1,-2,1,1
117925150337,-1,3,-1,-3,-4,1,-4,-3
117925165252,1,-2,0,3,1,2,2,0
117925165252,1,-3,0,1,1,-4,-3,2
117925166047,-2,1,15,-16,-7,-2,-3,-2
117925166047,2,4,-8,10,-7,-1,0,-1
117925188460,-7,-11,10,-11,14,5,3,-1
117925188460,1,5,6,8,-11,-8,-3,-1
117925189351,-5,-12,-12,-14,3,-1,-2,-1
117925189351,10,13,12,2,4,4,2,1
117925202118,-4,-4,-8,1,-7,-2,3,1
117925202118,0,-7,-2,-4,-3,-3,-6,-1
117925210292,-4,2,3,3,-10,-6,-3,-5
117925210292,-3,-7,-2,0,2,6,5,1
117925225299,5,8,-2,4,5,0,1,1
117925225299,-2,-4,1,-6,-4,1,-2,-1
117925226062,2,-1,-14,4,-2,-2,-1,-1
117925226062,-3,-1,2,-5,-6,-5,-7,-4
117925248431,-7,-22,-55,-13,-12,-8,-4,-5
117925248431,5,13,12,6,10,13,7,1
117925249217,-1,-15,-23,-2,7,3,1,3
117925249217,-7,16,-1,2,11,5,1,-4
117925262137,2,-7,14,-3,7,2,1,3
117925262137,-5,-30,-25,-3,-24,-13,-10,-5
117925270328,4,6,-5,-15,-32,-8,-4,2
117925270328,2,8,-9,13,44,-2,-4,-1
117925285253,-2,6,39,20,-16,-1,1,3
117925285253,-2,5,-34,4,-2,-2,-2,-2
117925286044,-8,-28,-55,-35,10,11,4,-2
117925286044,-7,-28,-2,-8,-8,-8,-4,-4
117925308492,0,22,25,6,-6,-9,-2,-2
117925308492,3,11,17,5,9,0,-1,2
117925309447,0,4,-15,10,-13,-9,-4,-1
117925309447,2,-4,-42,-9,-9,-1,0,0
117925330982,4,4,-5,11,6,3,1,2
117925330982,-2,-13,17,-12,-4,-1,0,-2
117925331707,-4,17,51,15,9,-2,-4,-7
117925331707,-1,-9,-42,0,-23,-11,-1,1
117925345952,0,10,35,-20,-19,4,3,1
117925345952,-2,-18,-15,3,20,15,6,1
117925346908,2,6,14,1,51,18,3,0
117925346908,-1,5,37,22,-26,-7,-6,0
117925368493,-3,2,-22,-62,-12,-5,0,0
117925368493,-2,5,-6,-12,0,3,1,-2
117925370086,2,-1,-10,9,26,2,-1,-1
117925370086,-8,-16,61,0,-32,-10,-2,-4
117925391055,1,8,-8,15,-17,-9,-6,-3
117925391055,-4,-20,-18,-15,-6,-10,-5,-2
117925392706,-1,9,9,17,-13,0,3,1
117925392706,3,7,0,-9,11,5,-1,1
117925404611,-10,-23,-16,3,16,6,0,-6
117925404611,12,13,9,3,1,-4,-3,4
117925413571,-1,4,18,6,-16,-9,-4,-4
117925413571,1,2,3,-8,6,4,2,3
117925428870,0,-2,35,16,0,-2,-1,0
117925428870,-2,11,24,37,-46,-8,-2,-2
117925434606,-5,-13,-37,-16,84,11,1,-2
117925434606,4,18,29,-20,-29,0,2,2
117925450978,-3,-15,17,30,26,4,0,-3
117925450978,0,6,-10,-42,13,-2,-5,-1
117925452566,-2,-4,-61,26,-43,-11,-3,-2
117925452566,1,0,13,6,22,5,2,-2
117925473416,3,-1,-14,4,-17,-1,-1,0
117925473416,-4,3,11,11,-7,-5,-3,-3
117925475073,2,0,2,-11,-6,-4,-1,0
117925475073,-2,-7,-21,-6,4,4,3,0
117925488455,3,4,-19,4,-6,-3,-2,2
117925488455,0,3,10,-1,17,1,-1,-1
117925490064,-4,-7,19,11,-17,-2,-1,0
117925490064,0,-1,-9,-18,-13,-3,-3,-3
117925518440,-2,-1,11,24,29,5,1,0
117925518440,-2,5,6,-8,14,6,1,0
117925520056,-1,-2,5,-45,7,0,-2,-2
117925520056,-3,-3,-2,5,-33,-8,-2,-1
117925524636,1,0,-19,2,31,7,1,1
117925524636,-3,-1,2,-13,-7,-4,-1,-2
117925539593,2,1,17,21,-31,-7,-2,-2
117925539593,3,1,3,3,16,6,1,-2
117925555987,-9,-14,-10,-3,-9,-1,-1,-1
117925555987,1,4,8,23,-6,-4,-3,-4
117925558232,1,-3,28,-3,-6,0,-1,1
117925558232,1,6,-6,-2,13,3,0,0
117925570949,0,-1,-1,-1,-8,-1,1,-1
117925570949,-4,-18,5,-8,4,-2,0,-2
117925572567,-2,5,6,1,-11,-2,-1,-1
117925572567,-2,-5,-4,-5,4,1,-1,1
117925585075,-1,5,3,-13,-3,-3,-4,-3
117925585075,-2,-3,-19,-10,-2,-1,1,1
117925593714,1,6,19,11,-3,-3,-1,-1
117925593714,-1,-5,-17,13,6,2,1,-1
117925608472,2,4,11,-1,-19,-4,0,-1
117925608472,-2,-2,-26,-17,20,0,-1,-2
117925610097,-2,-4,8,6,-9,-4,0,-1
117925610097,-2,-4,-7,7,3,-1,-2,-3
117925631118,1,0,-8,-21,10,1,-1,1
117925631118,0,2,9,8,-8,-2,-1,-1
117925632598,-2,0,3,1,-10,-3,-1,-1
117925632598,-3,-12,-25,-5,10,-1,-1,-2
117925653874,0,2,-8,1,-5,-1,-2,-3
117925653874,-2,1,-3,15,-5,-1,-1,-2
117925659606,1,3,3,-12,-1,-1,1,-1
117925659606,-2,1,6,0,-4,-1,-1,0
117925668473,-1,3,-8,2,2,-2,-1,-1
117925668473,-1,-3,9,-8,-2,0,-1,-1
117925670061,-4,5,-1,3,-7,0,-1,-3
117925670061,-1,-2,-8,-5,-1,-2,-2,-2
117925690967,1,2,-5,-2,-5,-2,-2,-2
117925690967,-1,1,-4,-5,2,1,-1,-1
117925692566,0,-1,-2,2,-3,-2,-1,-1
117925692566,-3,-11,1,-9,1,0,-2,-2
117925704613,0,2,-2,-6,-5,-1,-1,-1
117925704613,-5,-1,-6,8,0,-3,-1,-2
117925729633,0,-5,-5,-1,-2,-1,-3,-2
117925729633,-2,1,-5,-3,3,1,-1,1
117925730448,-2,-5,-3,3,-5,-1,-2,-2
117925730448,-2,2,-3,-6,-6,0,0,-1
117925734606,0,4,0,-1,9,2,-2,0
117925734606,0,4,3,-6,-6,-3,-3,-1
117925751073,-3,-5,-4,-3,-2,-2,1,-1
117925751073,-2,-1,-4,2,-4,-3,-2,-2
117925752630,-2,-1,-3,-2,-9,-1,-2,-1
117925752630,2,2,7,13,7,-1,0,-1
117925764598,-2,-2,-6,-15,4,-2,-1,-1
117925764598,2,0,0,2,-5,-5,0,-1
117925773752,-1,-2,-2,-3,-5,-2,-1,-2
117925773752,-4,-2,-1,12,-10,-1,1,-1
117925788479,0,-2,-5,-14,3,-1,-2,-1
117925788479,1,0,-1,6,-4,-5,-4,-2
117925790097,0,2,-3,-9,2,2,3,1
117925790097,2,6,19,5,-2,2,2,0
117925810049,-1,-2,-15,-7,-8,-2,0,1
117925810049,-3,2,13,-1,-5,-2,-2,-4
117925818696,-5,-9,-2,-39,-9,-2,-3,-1
117925818696,2,5,-1,-7,1,-5,-3,-3
117925824728,-5,-3,9,3,5,4,5,3
117925824728,3,6,2,7,10,0,2,1
117925833601,-1,-5,-4,15,-12,-3,-6,-5
117925833601,-1,5,-3,-24,-8,-4,-11,-4
117925849239,-1,-10,0,1,-16,-5,9,5
117925849239,-11,-7,-16,2,6,8,-2,-14
117925850865,1,3,2,15,-6,-5,6,4
117925850865,6,-4,-9,0,5,-10,-20,5
117925871040,-2,8,-3,4,27,10,-13,-11
117925871040,-3,-4,-4,-9,15,1,11,1
117925875251,2,2,5,4,6,6,18,3
117925875251,-3,1,1,-6,-26,3,6,0
117925884653,-2,-4,-1,10,17,-4,-6,0
117925884653,-2,-11,-8,-11,-13,-9,-11,1
117925899762,1,21,16,-2,7,-6,-7,-2
117925899762,-1,13,3,3,-5,-1,5,0
117925908609,-1,0,2,-4,-10,-3,0,-1
117925908609,0,1,-1,-6,-4,1,0,1
117925910253,-1,-4,-6,7,0,-1,-3,-2
117925910253,-3,0,-8,-1,5,2,2,-2
117925930166,15,31,28,3,-4,1,1,5
117925930166,-13,8,6,1,1,2,1,1
117925945249,-8,-28,-24,-4,-10,-1,-4,-4
117925945249,3,-10,1,1,14,3,4,0
117925946041,0,-4,9,-3,-10,-6,-3,-5
117925946041,8,1,-17,0,-7,-2,0,4
117925953637,-26,50,0,1,9,6,1,-4
117925953637,32,-44,31,-3,7,4,6,8
117925975952,2,12,8,6,0,-1,2,10
117925975952,10,13,3,-1,-4,0,-2,-8
117925977684,20,-27,-26,-7,2,-5,-6,10
117925977684,-65,15,-20,-3,3,-2,-4,-34
117925990977,-3,-10,-25,-6,-11,-1,-3,-10
117925990977,4,-4,30,3,3,4,2,5
117925992586,19,0,-11,10,-2,-5,-4,-1
117925992586,-4,-17,-17,-11,5,1,2,4
117926005089,5,35,-79,3,4,4,2,5
117926005089,-18,-35,49,-34,-23,-12,-10,-11
117926013588,6,17,21,11,-3,1,-1,1
117926013588,8,5,2,7,7,0,-1,7
117926035970,-1,-5,23,20,1,-7,-7,-4
117926035970,22,-29,-34,-29,-13,7,12,16
117926037596,-8,32,112,-4,4,8,5,1
117926037596,0,45,103,17,11,4,3,2
117926051076,-12,-50,4,-20,-22,-6,-1,-2
117926051076,4,30,9,28,-13,-5,-3,1
117926052583,-14,-40,-35,-4,-4,-12,-7,-6
117926052583,-12,-2,-65,-9,15,-1,-3,-1
117926064627,-1,21,29,-32,-1,4,2,1
117926064627,-13,2,-14,0,-10,0,-2,-5
117926073593,-4,-11,-17,13,-49,-14,-8,-6
117926073593,5,15,-6,-16,55,12,5,5
117926088443,2,2,0,12,-6,3,7,2
117926088443,9,9,-4,12,14,0,-3,-1
117926090104,28,-4,-20,43,-33,-6,-2,0
117926090104,23,30,21,-55,14,-1,-4,-1
117926111020,6,-4,-43,-28,45,9,-2,-7
117926111020,17,13,-10,24,2,3,12,6
117926112578,4,25,8,-39,-13,-6,-10,-6
117926112578,4,-15,-11,-1,-47,-10,2,3
117926124578,-12,-26,6,29,66,19,3,-4
117926124578,-18,-33,0,-12,-12,-4,-11,-9
117926133603,-18,-54,-12,2,28,5,1,-1
117926133603,-15,-39,-6,7,-30,-8,-3,0
117926148461,-3,2,6,-9,-38,-9,-5,-3
117926148461,-13,-9,0,6,7,-4,-2,0
117926150070,-7,-19,-3,-7,22,9,8,3
117926150070,0,18,-16,0,-22,-3,-5,-4
117926171051,-5,15,13,16,-9,-8,-3,-1
117926171051,-1,37,0,-7,1,0,-1,1
117926172546,-4,32,-6,-16,17,2,0,2
117926172546,2,11,-17,20,-6,-1,2,2
117926184613,-1,15,19,1,-19,-9,-2,-1
117926184613,1,12,7,6,19,2,1,1
117926193628,0,1,-18,-34,-4,2,0,-1
117926193628,-2,-25,-2,15,-11,-5,1,-2
117926209290,2,-29,1,-4,-16,0,-3,1
117926209290,-2,-15,-6,-5,-5,-3,-2,-1
117926215563,-3,-14,4,7,0,-1,0,0
117926215563,-1,-16,2,10,1,-2,-3,-2
117926231009,4,-5,-2,-7,-7,-1,2,-1
117926231009,-5,-14,-8,11,-22,-4,-3,-1
117926233094,-7,-1,24,-16,21,2,0,-2
117926233094,4,-7,-22,4,-2,-4,-4,-3
117926244832,-4,8,-18,-18,-22,-7,-2,-3
117926244832,0,-13,-2,0,-4,0,-1,-2
117926253599,-1,-2,4,6,1,-1,-2,0
117926253599,-1,1,8,0,-12,-2,-1,0
117926267799,0,14,21,21,-25,-9,-1,0
117926267799,4,12,3,-20,19,5,2,4
117926274538,-7,-9,-63,12,41,7,0,-6
117926274538,-7,-15,-14,-4,-6,-4,-3,-3
117926291083,3,5,61,-4,-30,-8,-5,-2
117926291083,-3,-10,-14,3,3,-3,-1,-2
117926292598,6,11,18,2,-22,-5,-1,1
117926292598,2,-1,-10,-40,27,9,2,-1
117926313457,-4,-6,7,22,-14,-3,-2,1
117926313457,4,-4,-9,-10,35,3,1,0
117926315071,4,16,10,13,-20,-5,-2,2
117926315071,-3,-5,19,16,-39,-8,-3,-2
117926327788,2,1,-8,-28,-1,-2,-2,-3
117926327788,-7,-21,-74,-30,-13,0,-3,-6
117926334633,1,0,0,26,32,5,1,1
117926334633,2,17,7,-9,-32,-6,-1,2
117926350985,0,8,-1,20,45,3,1,-1
117926350985,-6,-16,5,-13,-50,-5,0,-5
117926352547,-1,-1,-4,27,18,-1,-2,-3
117926352547,-1,-9,-7,-4,50,11,2,0
117926373499,2,8,5,-17,-56,-7,-5,-2
117926373499,7,13,17,37,34,2,2,2
117926375080,-6,-10,5,-47,62,5,0,-3
117926375080,1,9,16,50,6,-6,-1,0
117926387782,2,-12,-23,-33,1,4,2,3
117926387782,-5,5,16,5,-20,-1,-2,0
117926394616,1,-5,-3,-15,-55,-8,-1,-2
117926394616,-1,-2,-4,22,13,-3,-2,-1
117926410987,-3,-12,-5,7,31,3,0,0
117926410987,0,5,8,4,-17,-4,-5,-2
117926412567,-2,1,-2,5,-14,-3,0,0
117926412567,-2,-6,14,-20,-2,1,1,-1
117926433400,-4,-11,-21,8,8,1,1,-1
117926433400,1,6,11,-4,11,-1,-1,-1
117926435028,0,-6,-5,-5,-10,-2,0,-1
117926435028,1,-3,-3,-4,0,3,0,0
117926447858,-3,-13,-7,2,-3,0,-1,-2
117926447858,0,-2,2,5,8,-2,-2,0
117926454661,-3,0,2,11,-16,-2,-4,-3
117926454661,5,-5,0,-14,4,1,1,0
117926471108,0,3,-2,3,7,0,1,1
117926471108,1,7,0,24,7,1,-2,-2
117926472559,-2,6,-3,-42,-11,1,2,1
117926472559,-2,14,-7,17,-6,-4,-6,-2
117926501001,2,-2,1,0,15,5,1,1
117926501001,-4,7,-12,-7,0,0,-3,-3
117926502594,2,-16,12,16,-18,-3,-2,-1
117926502594,-8,-8,8,-13,6,-1,-1,-3
117926507163,-1,-1,-1,13,6,-2,-1,-4
117926507163,2,9,28,-18,1,-2,-1,0
117926516170,3,20,10,12,-2,-2,0,0
117926516170,-1,-5,-13,5,-6,0,2,2
117926531082,-1,-2,12,-17,-6,-1,-1,0
117926531082,-1,1,1,1,4,-1,0,-3
117926532511,0,-4,-6,-6,-1,-2,-2,-2
117926532511,-1,0,5,-1,-3,0,0,0
117926553427,-5,-5,-15,1,-2,-2,-2,-3
117926553427,4,10,11,9,-6,-5,-1,4
117926555069,1,-7,-17,-6,9,6,5,2
117926555069,-4,-2,-11,3,-6,0,0,-3
117926567206,-1,1,-12,1,-1,-3,0,-2
117926567206,0,0,-5,-4,0,-2,-1,0
117926576058,-3,-2,1,5,-4,-3,-3,-1
117926576058,0,5,-4,1,-15,-4,-2,0
117926590951,-2,-5,10,3,13,2,-2,-2
117926590951,2,-3,6,-13,13,0,0,0
117926592532,-3,-5,12,1,-5,-2,-2,-2
117926592532,0,-1,-3,7,-12,0,0,-1
117926621360,-2,-3,-10,-15,11,1,-3,-2
117926621360,2,4,15,1,-9,-2,0,1
117926627770,-1,-2,-12,-5,-4,-2,-2,-1
117926627770,0,2,0,-3,10,1,-1,-1
117926628611,2,-3,13,16,-6,-4,0,0
117926628611,-4,-4,-21,-11,2,4,0,-3
117926636073,2,1,-1,-1,1,1,-2,-1
117926636073,-1,2,4,9,5,1,-3,0
117926650963,-5,-8,-22,-10,2,5,4,-1
117926650963,-1,-6,-5,2,-1,-3,-1,-1
117926652517,0,0,-3,-7,-4,-3,-1,-1
117926652517,-1,2,9,-5,0,-2,-2,0
117926673482,-1,1,-5,-1,-3,-3,-4,0
117926673482,-3,-3,-2,0,-6,-3,-3,-2
117926675223,-2,1,3,4,-1,0,-1,-1
117926675223,1,-4,-7,-9,3,0,0,-1
117926687059,-1,1,-1,1,-6,-2,-1,1
117926687059,-1,-6,-6,0,-2,0,1,-1
117926696081,0,0,1,1,-3,-1,-1,-2
117926696081,-2,-4,-5,3,-1,-4,-1,-2
117926710710,-1,2,0,-33,-1,2,-1,0
117926710710,-1,0,5,0,0,-1,-2,-1
117926718587,-1,-10,-16,-8,-1,-4,-2,-2
117926718587,-3,-5,7,1,-8,-3,0,-2
117926733436,-5,-3,-6,10,-5,-2,-1,-1
117926733436,-1,-2,-4,-5,1,-2,-1,-1
117926735014,4,37,19,3,0,2,-1,3
117926735014,-1,-8,-8,-6,0,0,-3,-2
117926747143,3,6,3,11,2,-4,-4,1
117926747143,-1,-3,-5,-10,0,3,2,0
117926762198,-3,-11,-12,3,-5,-2,-1,-3
117926762198,0,2,4,1,3,-2,-1,-1
117926770998,2,6,3,-1,-4,-4,-2,-1
117926770998,-3,0,0,13,6,0,-1,-3
117926772572,0,-23,3,3,6,-2,1,-1
117926772572,-3,5,-3,-30,3,2,1,1
117926793481,0,-3,16,18,-8,-2,-1,-1
117926793481,0,0,-59,-8,-7,-2,-2,-2
117926795049,-1,2,2,1,-1,0,0,-1
117926795049,-1,-4,4,7,-3,-1,-2,0
117926807084,-2,0,-4,0,3,1,0,-1
117926807084,-1,-4,13,-2,-5,-2,0,-1
117926816197,-2,1,1,-2,4,-1,-1,0
117926816197,-1,-1,-7,-2,-5,-1,0,-2
117926830693,1,5,-3,-2,-1,0,1,1
117926830693,-2,-8,27,1,3,-1,-1,0
117926837078,-12,-21,-64,-11,-7,-3,-2,-3
117926837078,2,3,16,-3,2,-1,-3,-1
117926854103,-1,2,3,2,-1,1,0,-1
117926854103,-1,0,8,2,-2,-1,-3,-1
117926855692,-1,-4,14,-13,-2,-1,-2,-3
117926855692,1,8,6,8,-7,-3,-3,-1
117926867187,-3,0,3,16,-1,-2,-3,-1
117926867187,-2,-6,-28,-34,1,5,3,0
117926876058,1,6,11,3,-1,-1,0,1
117926876058,-2,-7,-15,-9,1,-3,-2,-3
117926890979,2,1,14,4,-6,-3,-1,-1
117926890979,2,-2,14,16,-2,-3,-2,1
117926892543,2,2,-11,-10,3,0,-3,-1
117926892543,-3,-4,-4,3,-2,-1,0,0
117926913566,-4,-2,-7,-7,-1,-2,-1,-2
117926913566,-2,-1,5,-4,-9,-3,0,-1
117926915055,2,5,4,11,-2,0,1,0
117926915055,-1,0,7,-20,-3,1,-2,0
117926927093,-1,-4,-7,4,2,0,-1,0
117926927093,1,5,0,1,0,-3,-2,-1
117926936107,0,3,22,14,7,0,0,1
117926936107,-1,-3,4,0,3,0,0,-1
117926950953,-1,0,-37,-12,-4,-2,-1,-3
117926950953,-5,-19,2,6,-7,-1,1,1
117926952517,1,10,5,1,2,-2,-1,-1
117926952517,-1,-2,4,2,-2,-2,0,-1
117926973451,-4,-10,-4,-2,-5,-1,-3,-2
117926973451,1,5,4,67,-9,-3,-2,-1
117926975048,-2,-5,3,-56,21,5,-1,-1
117926975048,3,2,-18,-38,-8,5,4,0
117926987047,-2,-3,7,9,-9,-5,-2,1
117926987047,-1,8,23,-3,9,1,-3,-4
117926996089,-6,-13,-51,17,-8,-4,-3,-1
117926996089,1,1,5,14,3,1,-1,0
117927011460,0,-3,6,-7,4,1,-1,-2
117927011460,1,8,3,-17,-8,-3,-1,-1
117927013019,-4,-10,-11,7,-5,-2,-1,-3
117927013019,-1,-2,-7,-5,4,-1,-1,-1
117927033401,-2,-2,-6,4,-5,-2,-2,0
117927033401,-1,-4,2,-12,7,1,-1,-2
117927035016,2,5,12,2,-6,-2,-1,-1
117927035016,-1,4,-8,3,-8,-3,-2,-1
117927055962,-3,-3,6,-7,0,-3,-1,0
117927055962,1,10,14,7,14,5,2,3
117927057559,-2,-14,-45,-16,-6,-3,-4,-5
117927057559,-4,-4,-2,-2,-7,-3,-2,0
117927071046,3,7,6,4,-6,-3,-2,-3
117927071046,-2,-1,3,-25,-8,0,-2,1
117927072586,-2,1,20,36,7,-1,-1,-1
117927072586,-2,0,2,-7,-9,-1,-2,-1
117927093397,0,-4,-9,-14,3,2,0,-1
117927093397,-1,-5,-18,0,-2,-4,-2,-3
117927095007,2,7,38,5,-2,-1,-1,-1
117927095007,0,-4,-11,7,5,-1,-1,-4
117927107087,-3,-3,1,-4,3,1,0,1
117927107087,-2,-1,-7,-2,-1,-2,-2,-1
117927116098,1,6,7,3,-8,-3,-1,0
117927116098,-5,-11,-3,-15,6,1,-2,-1
117927130319,0,1,-8,3,-1,1,-1,-1
117927130319,-1,-5,-1,-1,-2,-1,-3,-2
117927137050,-5,-2,-3,-2,-13,-2,-2,-1
117927137050,0,2,11,2,6,0,-1,-1
117927160970,-2,0,3,2,-2,-1,-1,-2
117927160970,-3,-3,-18,-10,-2,-3,-3,-1
117927162583,1,4,19,-6,-2,0,1,0
117927162583,1,0,0,20,-10,-4,0,-1
117927167219,-1,1,8,-10,6,-1,1,-1
117927167219,-5,6,-42,-9,5,-3,-2,-4
117927176060,9,16,20,-5,-9,-2,1,3
117927176060,-13,-9,-11,4,5,-1,0,-4
117927190307,0,4,1,2,-4,-2,-2,-3
117927190307,1,23,-23,-4,-11,-7,-6,-8
117927197131,-11,-51,-23,-6,-1,-2,-1,-1
117927197131,-5,19,-79,-10,-9,-8,-9,-10
117927213454,-2,6,5,-1,-1,2,3,5
117927213454,-18,-41,-53,-12,-7,-8,-11,-15
117927215058,-8,-7,-48,-7,1,3,-1,-1
117927215058,0,26,-4,1,-2,-4,-1,-1
117927235989,-2,1,6,4,4,2,2,1
117927235989,5,-2,6,-24,-15,-1,3,4
117927237526,3,29,49,29,11,-1,0,0
117927237526,-6,-43,-20,-17,-4,0,-2,-2
117927250271,-4,-31,-19,-7,-2,-4,-4,-7
117927250271,0,-8,65,28,18,4,3,4
117927257091,0,-7,-39,-42,-12,-2,-2,-3
117927257091,3,6,24,24,1,-2,-1,3
117927273474,-2,-9,-20,-2,0,-1,-1,-3
117927273474,3,18,11,-5,-11,-4,-1,-1
117927275023,-1,-5,10,-5,1,1,1,-1
117927275023,-1,-14,16,6,7,2,0,0
117927296396,-4,-9,2,-7,-7,-2,-1,0
117927296396,4,13,35,13,4,2,1,4
117927298045,0,4,-41,3,0,0,-2,-2
117927298045,1,-1,14,-4,0,-1,3,2
117927311010,2,15,7,17,3,-1,-2,-3
117927311010,-2,-6,-6,-20,-1,0,0,-1
117927312966,0,4,29,-3,-2,0,-1,-1
117927312966,3,5,6,8,-4,-1,0,0
117927333420,-2,-6,-2,2,7,2,1,0
117927333420,-1,-3,-1,-1,1,-1,2,1
117927335041,0,-5,9,-2,-1,1,2,-1
117927335041,-3,-25,8,5,-2,-2,-3,-1
117927355964,4,18,9,4,2,-1,-1,-1
117927355964,0,-3,0,-3,-4,1,2,0
117927357542,-4,9,4,-1,0,-2,-1,0
117927357542,2,-3,-1,2,0,2,-3,-2
117927370374,1,2,-5,-13,-5,-2,-1,-2
117927370374,-6,-52,-27,-2,0,-3,-4,-2
117927377175,-2,7,19,9,1,0,0,-1
117927377175,2,6,-44,-10,-1,0,1,0
117927393406,-5,-10,-9,8,0,1,0,-2
117927393406,1,14,4,-13,-11,-1,1,0
117927395032,-1,0,8,14,15,0,-4,-1
117927395032,3,4,23,-9,-2,1,2,1
117927416389,1,5,-3,12,-2,-5,-4,-1
117927416389,1,0,-8,1,6,-1,-1,0
117927417996,0,0,3,-8,-8,-1,-2,0
117927417996,-1,5,20,4,2,1,2,-1
117927430323,-1,-4,-40,-7,-2,-1,-1,-2
117927430323,-1,8,16,7,0,0,-1,-2
117927437045,0,0,9,3,-6,-3,-1,0
117927437045,0,-4,-4,-6,1,-1,-2,2
117927453441,-4,-3,10,-6,-2,-3,-2,-1
117927453441,0,5,1,8,4,3,0,0
117927455056,1,2,-10,7,-5,-3,-2,-2
117927455056,-2,-2,4,-13,5,3,1,-4
117927476022,0,12,-5,-9,-3,1,-2,-1
117927476022,1,-2,3,-6,1,2,1,1
117927477677,-1,3,1,-3,-5,-1,-2,0
117927477677,0,6,8,13,-4,0,-2,-2
117927498433,-1,3,6,-5,-1,-4,-3,0
117927498433,0,4,-3,-3,-6,-3,-2,0
117927500056,1,-3,-2,3,-1,-3,0,-1
117927500056,-2,-2,6,6,-7,-6,-3,-2
117927513412,1,-2,11,-19,13,7,3,2
117927513412,-3,-2,-19,7,-3,-2,-2,0
117927515044,0,-5,-4,-5,2,2,0,-1
117927515044,-3,1,3,2,-1,-3,2,0
117927536000,1,-4,7,6,-1,0,-1,-2
117927536000,-1,1,-2,-5,-3,-1,-1,-1
117927537552,-1,4,-1,-2,-3,-4,-1,-2
117927537552,0,-1,-2,7,0,0,-2,-1
117927550243,-3,-1,6,0,-2,-1,-2,-2
117927550243,0,1,1,-10,-3,-1,-1,-2
117927557134,-1,1,-4,0,-1,0,0,0
117927557134,-2,8,-1,5,1,-3,-3,-1
117927572677,-2,-2,3,-6,-10,0,1,1
117927572677,2,20,8,20,14,-1,-3,-2
117927581072,-4,-6,3,-17,-5,-1,-1,-3
117927581072,1,3,-7,-8,1,-2,-1,0
117927595974,0,0,0,1,-3,-3,-4,0
117927595974,-3,3,-9,3,-7,-2,-1,-3
117927597534,-3,-3,0,6,0,-2,1,-1
117927597534,-2,-9,13,-2,-2,-2,-2,-2
117927610241,2,0,-8,1,-2,-2,-2,-3
117927610241,-4,-11,-23,-1,-1,-1,0,-1
117927617150,-3,-1,15,-6,-1,-2,-3,-2
117927617150,-2,-6,-13,-11,-3,1,1,-1
117927633405,0,3,8,5,0,0,0,1
117927633405,3,-4,8,4,-1,0,0,0
117927635050,0,2,-9,6,2,1,1,1
117927635050,-1,-2,6,0,-3,-3,-2,1
117927656041,0,-3,-1,13,-2,-4,-2,-2
117927656041,-3,-1,17,-6,10,0,0,-1
117927657551,0,1,-16,-6,-7,0,0,-1
117927657551,0,-2,-8,4,2,0,-1,-3
117927670327,-2,-14,0,6,-1,-1,0,1
117927670327,-2,9,15,-8,-3,0,1,-3
117927677132,2,-1,2,5,-2,-2,-2,0
117927677132,-1,1,-2,-2,1,1,0,-3
117927693389,-3,1,-3,0,-2,1,-2,-1
117927693389,0,-24,3,1,0,-1,1,1
117927695006,-1,-3,3,8,2,-2,-1,0
117927695006,-1,2,-6,-18,-9,0,-2,0
117927716004,-2,-1,2,-1,2,-1,-2,0
117927716004,-1,3,-9,-1,0,-2,-2,0
117927717582,-3,-3,-1,2,-1,0,-1,-1
117927717582,1,-3,6,10,-2,-2,-1,-1
117927729535,-1,2,-2,-11,0,-1,0,-1
117927729535,0,5,-1,-1,-4,0,0,0
117927738554,-3,-7,-3,3,2,0,-2,-3
117927738554,-1,6,22,-10,-4,-2,0,1
117927753422,-1,-5,-51,-9,-3,-1,-1,0
117927753422,-4,-2,10,6,-4,-3,-1,-1
117927754996,0,0,-1,1,-3,0,-2,-1
117927754996,-1,-3,0,5,2,0,-1,-1
117927776005,0,2,14,-7,1,0,-1,-2
117927776005,0,-10,-15,0,-8,0,-3,-1
117927777526,-2,-1,-5,-1,0,-4,-2,-3
117927777526,1,1,0,-1,3,3,0,2
117927789560,1,1,12,-8,-4,1,1,-1
117927789560,-1,4,-6,5,5,0,-2,-1
117927806069,0,-4,5,-16,-10,-12,-5,0
117927806069,0,-2,-6,9,-8,4,0,-3
117927813491,-2,-1,3,-2,13,13,1,0
117927813491,-1,0,6,0,-1,7,2,1
117927815026,0,1,-6,-1,-4,-4,1,0
117927815026,-3,-1,-2,-1,-5,-9,-3,-3
117927843462,-3,-1,1,-4,-6,-6,-5,-2
117927843462,-2,-2,-13,-6,-6,-7,-2,-2
117927845053,3,1,6,1,5,4,1,1
117927845053,-2,-10,-5,4,-4,-6,-3,-1
117927858482,-1,3,10,-8,-4,0,-1,-3
117927858482,1,7,0,-6,4,-3,-2,0
117927860042,-1,-1,8,-12,-3,2,4,2
117927860042,-1,3,-2,6,3,2,0,0
117927873523,-1,-5,-8,7,-2,-7,-1,-2
117927873523,0,-2,15,9,1,-4,-3,-4
117927875047,-2,1,-19,-8,-7,0,-1,-2
117927875047,0,-2,1,-11,6,3,0,-1
117927896001,-1,1,0,3,-1,-7,-2,1
117927896001,-2,-1,4,-2,-9,0,0,-1
117927897593,-1,-2,-9,-7,4,3,-2,0
117927897593,-2,0,11,11,4,-1,-1,-3
117927909528,-1,-3,-39,-12,-9,-4,-2,-1
117927909528,-4,-7,1,-2,2,0,0,-1
117927924549,-1,3,6,9,-2,-2,-1,-1
117927924549,1,3,-2,-2,-6,-2,0,1
117927933379,0,-3,4,3,10,0,-1,-2
117927933379,-2,-3,-10,-7,-8,0,0,-1
117927934985,-2,-1,-3,-5,1,0,-4,-1
117927934985,-3,-3,-11,-6,-3,-3,0,-3
117927955947,1,2,16,11,4,1,-1,0
117927955947,0,-4,-16,4,2,-3,-1,0
117927957493,-2,-4,5,-3,-2,0,-1,-2
117927957493,0,2,-3,-3,-2,-2,-3,-1
117927979829,0,1,2,-7,-7,-3,1,1
117927979829,0,2,6,0,1,-2,0,-2
117927981454,2,1,-2,9,7,0,0,0
117927981454,-1,-3,13,-13,-2,0,0,0
117927993447,-2,-2,-12,2,-4,0,0,-2
117927993447,-3,-4,-4,-5,-4,-2,-2,-2
117927995059,0,-1,0,8,2,0,0,-2
117927995059,0,1,6,9,2,0,-3,-1
117928016076,-3,-3,2,-10,-1,0,-1,2
117928016076,1,-2,3,-3,-4,0,-1,0
117928017649,0,-2,-5,-5,-4,-1,-3,-2
117928017649,-1,-2,-6,0,-1,-3,-4,-2
117928029567,-2,-3,-3,-7,-4,-1,-1,-2
117928029567,-1,2,-4,7,6,0,-1,-1
117928038544,-2,-3,0,-3,-5,-3,-3,-1
117928038544,0,-3,0,3,0,-2,-1,-1
117928053387,-3,1,-4,-9,-2,-2,0,-2
117928053387,0,0,4,0,-2,1,1,-1
117928054970,0,1,5,9,3,-2,-1,-2
117928054970,-4,-4,-15,-11,-4,0,0,-1
117928083395,-1,1,9,-4,4,1,1,0
117928083395,1,3,-2,-6,-5,-2,-5,0
117928085005,0,-2,10,7,1,-1,-1,-2
117928085005,-1,1,-4,-6,-4,1,-1,-1
117928089578,-1,-2,5,6,-3,-5,-1,-3
117928089578,1,0,-1,-1,6,2,3,0
117928098552,0,-1,-5,-11,-8,-1,-1,-1
117928098552,0,0,-7,7,4,0,-2,-1
117928113385,-1,-5,4,-3,-5,0,1,1
117928113385,0,2,0,-5,1,-3,-2,0
117928115166,-2,-6,-11,-2,0,-2,0,-1
117928115166,-2,-1,0,-1,5,2,1,0
117928135979,-3,-1,-8,3,-1,-3,-2,-5
117928135979,-2,-1,-3,0,-5,-1,0,-1
117928137550,0,3,5,-9,-5,2,2,0
117928137550,-3,-3,-15,-4,4,1,-1,-1
117928158416,2,0,9,11,1,-1,-3,1
117928158416,-2,1,-2,-8,-4,-3,-1,-2
117928160020,0,1,-2,-2,-3,0,-2,-1
117928160020,-2,-1,9,5,-1,-3,-1,-1
